1.77571	0
1.77825	1.49E-04
1.7808	4.68E-04
1.78336	5.95E-04
1.78592	7.81E-04
1.78849	8.83E-04
1.79107	0.00112
1.79365	0.00123
1.79624	0.00137
1.79884	0.00176
1.80145	0.00179
1.80406	0.00207
1.80669	0.00216
1.80932	0.00243
1.81195	0.00251
1.8146	0.00269
1.81725	0.003
1.81991	0.00305
1.82258	0.00338
1.82526	0.00354
1.82794	0.00365
1.83063	0.00387
1.83333	0.00402
1.83604	0.00429
1.83876	0.00447
1.84148	0.00462
1.84421	0.00468
1.84695	0.00492
1.8497	0.00512
1.85246	0.00541
1.85522	0.00548
1.858	0.0056
1.86078	0.00588
1.86357	0.00596
1.86637	0.00626
1.86917	0.00641
1.87199	0.00657
1.87481	0.00668
1.87764	0.00694
1.88048	0.0071
1.88333	0.00735
1.88619	0.00739
1.88906	0.00756
1.89193	0.0078
1.89482	0.00792
1.89771	0.00802
1.90061	0.00825
1.90352	0.00838
1.90644	0.00853
1.90937	0.00878
1.91231	0.00894
1.91525	0.00913
1.91821	0.00917
1.92117	0.00934
1.92415	0.00959
1.92713	0.00977
1.93012	0.00991
1.93313	0.01
1.93614	0.01015
1.93916	0.01035
1.94219	0.01043
1.94523	0.01065
1.94828	0.01079
1.95133	0.01094
1.9544	0.01112
1.95748	0.0113
1.96057	0.01149
1.96367	0.01162
1.96677	0.0118
1.96989	0.012
1.97302	0.01211
1.97615	0.01238
1.9793	0.01258
1.98246	0.01269
1.98562	0.01295
1.9888	0.0135
1.99199	0.01337
1.99518	0.01365
1.99839	0.01378
2.00161	0.01392
2.00484	0.01451
2.00808	0.01453
2.01133	0.01465
2.01459	0.01484
2.01786	0.01509
2.02114	0.01524
2.02443	0.01551
2.02773	0.01564
2.03105	0.01582
2.03437	0.01607
2.0377	0.01625
2.04105	0.01638
2.04441	0.01663
2.04778	0.01683
2.05116	0.01703
2.05455	0.01717
2.05795	0.01737
2.06136	0.01762
2.06478	0.01785
2.06822	0.01796
2.07167	0.01815
2.07513	0.01851
2.0786	0.01866
2.08208	0.01877
2.08557	0.01894
2.08908	0.01919
2.09259	0.01945
2.09612	0.0196
2.09966	0.01985
2.10321	0.02032
2.10678	0.02034
2.11036	0.02081
2.11395	0.02078
2.11755	0.02125
2.12116	0.02125
2.12479	0.02182
2.12842	0.02173
2.13208	0.02232
2.13574	0.02241
2.13941	0.02253
2.1431	0.02283
2.1468	0.02328
2.15052	0.02328
2.15425	0.02388
2.15799	0.02371
2.16174	0.0241
2.16551	0.02423
2.16928	0.02448
2.17308	0.02473
2.17688	0.02502
2.1807	0.02516
2.18453	0.02554
2.18838	0.02574
2.19224	0.02603
2.19611	0.02615
2.2	0.02636
2.2039	0.02663
2.20782	0.02677
2.21174	0.02707
2.21569	0.02716
2.21964	0.02736
2.22361	0.02746
2.2276	0.02786
2.2316	0.028
2.23561	0.0282
2.23964	0.02827
2.24368	0.02842
2.24774	0.02871
2.25181	0.02891
2.2559	0.02923
2.26	0.02944
2.26412	0.02953
2.26825	0.02981
2.27239	0.03001
2.27656	0.03021
2.28073	0.03038
2.28493	0.03062
2.28913	0.0308
2.29336	0.03088
2.2976	0.03119
2.30185	0.03137
2.30612	0.03155
2.31041	0.03182
2.31471	0.03202
2.31903	0.0321
2.32336	0.0322
2.32772	0.03245
2.33208	0.03285
2.33647	0.03294
2.34087	0.03309
2.34528	0.03329
2.34972	0.03352
2.35417	0.03377
2.35863	0.03388
2.36312	0.03409
2.36762	0.03423
2.37214	0.03449
2.37667	0.03468
2.38123	0.03486
2.3858	0.03509
2.39038	0.03539
2.39499	0.03559
2.39961	0.03572
2.40426	0.03593
2.40891	0.03612
2.41359	0.03638
2.41829	0.0365
2.423	0.03682
2.42773	0.03721
2.43249	0.03735
2.43725	0.03749
2.44204	0.03759
2.44685	0.03793
2.45168	0.03826
2.45652	0.03847
2.46139	0.03868
2.46627	0.03904
2.47117	0.03912
2.4761	0.03933
2.48104	0.03965
2.486	0.03994
2.49098	0.04012
2.49598	0.04036
2.50101	0.0407
2.50605	0.04107
2.51111	0.04127
2.51619	0.04164
2.5213	0.04203
2.52642	0.04228
2.53157	0.04262
2.53673	0.04291
2.54192	0.04333
2.54713	0.04365
2.55236	0.0441
2.55761	0.0445
2.56289	0.04497
2.56818	0.04537
2.5735	0.04584
2.57884	0.04626
2.5842	0.04689
2.58958	0.04736
2.59499	0.04806
2.60042	0.04883
2.60587	0.04949
2.61134	0.05026
2.61684	0.05116
2.62236	0.05218
2.62791	0.05324
2.63347	0.05462
2.63907	0.05606
2.64468	0.05771
2.65032	0.0597
2.65598	0.06205
2.66167	0.06483
2.66738	0.0681
2.67312	0.07204
2.67888	0.07662
2.68467	0.08249
2.69048	0.0895
2.69631	0.09829
2.70217	0.10856
2.70806	0.12157
2.71397	0.13682
2.71991	0.15518
2.72588	0.1777
2.73187	0.20384
2.73789	0.23396
2.74393	0.26955
2.75	0.30895
2.7561	0.35265
2.76222	0.40131
2.76837	0.45264
2.77455	0.5083
2.78076	0.56575
2.787	0.62279
2.79326	0.68197
2.79955	0.73838
2.80587	0.79117
2.81222	0.84163
2.81859	0.88592
2.825	0.92486
2.83144	0.95613
2.8379	0.97876
2.84439	0.99353
2.85092	1
2.85747	0.99842
2.86406	0.9889
2.87067	0.97199
2.87731	0.94891
2.88399	0.91949
2.8907	0.88581
2.89744	0.84755
2.90421	0.8064
2.91101	0.76391
2.91784	0.72085
2.92471	0.67629
2.9316	0.63388
2.93853	0.59069
2.9455	0.55048
2.95249	0.51172
2.95952	0.47485
2.96659	0.44067
2.97368	0.4078
2.98082	0.37745
2.98798	0.34976
2.99518	0.32436
3.00242	0.30108
3.00969	0.27968
3.01699	0.26036
3.02433	0.24379
3.03171	0.22912
3.03912	0.21644
3.04657	0.20587
3.05405	0.19701
3.06158	0.18983
3.06914	0.18348
3.07673	0.17822
3.08437	0.17435
3.09204	0.17087
3.09975	0.16771
3.1075	0.16527
3.11529	0.16351
3.12312	0.16181
3.13098	0.1606
3.13889	0.1597
3.14684	0.15902
3.15482	0.15841
3.16285	0.1581
3.17092	0.15809
3.17903	0.15807
3.18718	0.15838
3.19537	0.15873
3.20361	0.15978
3.21189	0.16017
3.22021	0.16158
3.22857	0.16318
3.23698	0.16501
3.24543	0.16729
3.25393	0.17022
3.26247	0.17386
3.27105	0.17736
3.27968	0.18158
3.28836	0.18618
3.29708	0.19134
3.30585	0.19645
3.31467	0.20248
3.32353	0.20891
3.33244	0.21578
3.3414	0.22265
3.3504	0.23055
3.35946	0.23868
3.36856	0.247
3.37772	0.25624
3.38692	0.26635
3.39617	0.27617
3.40548	0.28678
3.41484	0.29813
3.42424	0.30996
3.4337	0.32268
3.44321	0.33503
3.45278	0.34979
3.4624	0.36398
3.47207	0.37972
3.48179	0.39597
3.49157	0.41218
3.50141	0.43
3.5113	0.44872
3.52125	0.46698
3.53125	0.48762
3.54131	0.50808
3.55143	0.52943
