5.01436	0
5.03136	32.3493
5.04836	25.46513
5.06536	115.74578
5.08236	26.12077
5.09936	19.34867
5.11636	83.18688
5.13336	26.28286
5.15036	46.6478
5.16736	23.20562
5.18436	87.63967
5.20136	95.70202
5.21836	80.81364
5.23536	62.88276
5.25236	16.71327
5.26936	5.20034
5.28636	25.6874
5.30336	26.67828
5.32036	-22.94272
5.33736	16.27815
5.35436	55.63566
5.37136	72.74276
5.38836	-16.94756
5.40536	22.2
5.42236	37.2138
5.43936	53.02842
5.45636	31.05457
5.47336	60.41071
5.49036	90.07561
5.50736	49.1193
5.52436	51.10229
5.54136	95.92769
5.55836	67.20663
5.57536	32.20204
5.59236	85.39611
5.60936	86.64168
5.62636	57.46497
5.64336	75.60931
5.66036	65.20326
5.67736	57.07792
5.69436	59.57431
5.71136	37.44543
5.72836	20.67077
5.74536	26.3647
5.76236	40.37476
5.77936	0.73149
5.79636	81.79863
5.81336	67.3715
5.83036	-32.33668
5.84736	23.92965
5.86436	44.01506
5.88136	21.71596
5.89836	-12.39867
5.91536	14.80453
5.93236	60.10995
5.94936	74.11764
5.96636	99.39271
5.98336	5.21541
6.00036	38.2302
6.01736	15.29498
6.03436	90.32481
6.05136	86.23324
6.06836	25.71597
6.08536	66.14785
6.10236	31.27859
6.11936	-15.89688
6.13636	33.64767
6.15336	114.45217
6.17036	82.0504
6.18736	-61.56871
6.20436	29.80786
6.22136	73.05534
6.23836	96.17747
6.25536	102.78726
6.27236	52.37799
6.28936	34.05964
6.30636	70.74839
6.32336	55.41303
6.34036	51.91736
6.35736	82.23435
6.37436	-13.38022
6.39136	-28.49511
6.40836	-9.43026
6.42536	44.7667
6.44236	65.16415
6.45936	62.19813
6.47636	59.07968
6.49336	60.24439
6.51036	20.49357
6.52736	29.36035
6.54436	102.5958
6.56136	159.52684
6.57836	78.42108
6.59536	13.12618
6.61236	-13.88833
6.62936	37.94192
6.64636	67.87453
6.66336	46.74354
6.68036	43.01631
6.69736	73.10533
6.71436	90.03012
6.73136	94.71026
6.74836	102.11304
6.76536	46.08421
6.78236	14.15575
6.79936	17.14577
6.81636	4.20622
6.83336	42.44916
6.85036	-24.22393
6.86736	119.36068
6.88436	81.79435
6.90136	7.95031
6.91836	50.09786
6.93536	29.18577
6.95236	63.39416
6.96936	21.60137
6.98636	27658
7.00336	51.07155
7.02036	89.67524
7.03736	-53.61363
7.05436	20.80216
7.07136	54.55497
7.08836	1.2535
7.10536	26.21113
7.12236	7.85014
7.13936	64.74656
7.15636	47.90587
7.17336	45.64869
7.19036	-2.9622
7.20736	12.90766
7.22436	66.10088
7.24136	58.85775
7.25836	43.22755
7.27536	73.47818
7.29236	47.29628
7.30936	12.50388
7.32636	-1.1005
7.34336	11.56236
7.36036	26.11762
7.37736	14.47376
7.39436	-32.38046
7.41136	-33.43006
7.42836	34.01187
7.44536	96.48167
7.46236	72.34076
7.47936	28.54396
7.49636	-2.45229
7.51336	14.59462
7.53036	59.65178
7.54736	48.51784
7.56436	33.45353
7.58136	48.01253
7.59836	91.04952
7.61536	56.53929
7.63236	12.84602
7.64936	63.55512
7.66636	31.34321
7.68336	66.96165
7.70036	16.31261
7.71736	5.19502
7.73436	71.68642
7.75136	-10.00237
7.76836	31.8868
7.78536	87.46295
7.80236	74.78289
7.81936	-40.46181
7.83636	5.63981
7.85336	36.43611
7.87036	6.2144
7.88736	75.82503
7.90436	2.09196
7.92136	38.27255
7.93836	46.60005
7.95536	65.11142
7.97236	49.02484
7.98936	76.37349
8.00636	35.09042
8.02336	38.12912
8.04036	20.39946
8.05736	62.08157
8.07436	62.4833
8.09136	93.53376
8.10836	64.36611
8.12536	84.0525
8.14236	29.43524
8.15936	45.53405
8.17636	11.67964
8.19336	5.93434
8.21036	-3.37422
8.22736	27.64536
8.24436	78.97476
8.26136	45.61582
8.27836	11.26817
8.29536	43.50178
8.31236	86.50586
8.32936	59.47592
8.34636	55.19855
8.36336	93.00307
8.38036	21.21381
8.39736	29.7824
8.41436	37.13841
8.43136	37.24773
8.44836	17.91651
8.46536	-22.25317
8.48236	59.08652
8.49936	91.75132
8.51636	63.0018
8.53336	81.10587
8.55036	50.34291
8.56736	39.94625
8.58436	33.18591
8.60136	59.02016
8.61836	100.88097
8.63536	70.03477
8.65236	114.58443
8.66936	63.63143
8.68636	42.01685
8.70336	40.79593
8.72036	48.77826
8.73736	14.49697
8.75436	80.76106
8.77136	114.92846
8.78836	100.35351
8.80536	159.53923
8.82236	73.35511
8.83936	92.19172
8.85636	190.98814
8.87336	47.45677
8.89036	148.62867
8.90736	138.33799
8.92436	239.33306
8.94136	206.91093
8.95836	99.82117
8.97536	297.43565
8.99236	214.15493
9.00936	240.26721
9.02636	315.31944
9.04336	354.25331
9.06036	285.66999
9.07736	473.25468
9.09436	553.56333
9.11136	627.73689
9.12836	721.4619
9.14536	784.40846
9.16236	677.24226
9.17936	501.42215
9.19636	271.13769
9.21336	146.37786
9.23036	117.1729
9.24736	113.47452
9.26436	72.83945
9.28136	47.79085
9.29836	0.04193
9.31536	34.89911
9.33236	55.52704
9.34936	23.57959
9.36636	60.49853
9.38336	78.8167
9.40036	65.67974
9.41736	41.94462
9.43436	63.31869
9.45136	48.48721
9.46836	20.95344
9.48536	2.93027
9.50236	-9.2611
9.51936	13.07979
9.53636	48.68649
9.55336	-0.43529
9.57036	6.08894
9.58736	24.07667
9.60436	49.87965
9.62136	15.68049
9.63836	13.69073
9.65536	18.94393
9.67236	1.63452
9.68936	78.22017
9.70636	119.69799
9.72336	98.46735
9.74036	45.35706
9.75736	36.9422
9.77436	12.88814
9.79136	38.48497
9.80836	52.8218
9.82536	11.93901
9.84236	34.38297
9.85936	103.32969
9.87636	38.65129
9.89336	32.87833
9.91036	67.4935
9.92736	10.27364
9.94436	85.88821
9.96136	35.70263
9.97836	-6.02034
9.99536	28.46324
10.01236	57.60904
10.02936	-30.78868
10.04636	1.50433
10.06336	30.76198
10.08036	69.22554
10.09736	45.90442
10.11436	80.40845
10.13136	40.28739
10.14836	-16.10148
10.16536	75.54741
10.18236	49.89763
10.19936	31.12218
10.21636	38.91301
10.23336	35.63054
10.25036	21.08896
10.26736	41.30642
10.28436	12.14009
10.30136	-14.2326
10.31836	21.71716
10.33536	7.99
10.35236	19.41983
10.36936	26.48364
10.38636	15.02082
10.40336	0.75275
10.42036	-30.71284
10.43736	-0.73675
10.45436	2.77726
10.47136	-0.2278
10.48836	18.57506
10.50536	49.63274
10.52236	68.13348
10.53936	14.45987
10.55636	58.52633
10.57336	66.38302
10.59036	38.57169
10.60736	3.28481
10.62436	24.77049
10.64136	37.65186
10.65836	44.4285
10.67536	12.19405
10.69236	52.78417
10.70936	20.61661
10.72636	32.38267
10.74336	23.13495
10.76036	35.42
10.77736	-1.44209
10.79436	37.85004
10.81136	-4.12083
10.82836	37.72563
10.84536	62.45045
10.86236	16.42045
10.87936	15.03922
10.89636	-23.40465
10.91336	13.22353
10.93036	-30.57226
10.94736	-0.84212
10.96436	47.27103
10.98136	80.08312
10.99836	6.48079
11.01536	-0.6031
11.03236	64.19177
11.04936	69.21769
11.06636	53.2897
11.08336	88.48215
11.10036	64.37043
11.11736	30.4575
11.13436	17.11347
11.15136	35.33996
11.16836	-4.39365
11.18536	48.95864
11.20236	52.78944
11.21936	25.75254
11.23636	18.66585
11.25336	-7.71667
11.27036	-7.64011
11.28736	3.70809
11.30436	10.96787
11.32136	5.46887
11.33836	13.08459
11.35536	-1.29983
11.37236	1.56919
11.38936	15.03894
11.40636	14.55308
11.42336	2.33967
11.44036	-24.31456
11.45736	-48.59899
11.47436	19.38905
11.49136	25.09979
11.50836	-1.25706
11.52536	2.88165
11.54236	-28.0586
11.55936	-2.75404
11.57636	9.8182
11.59336	0.04257
11.61036	-14.45439
11.62736	8.28883
11.64436	46.14728
11.66136	38.87022
11.67836	6.87734
11.69536	-20.93798
11.71236	-28.9463
11.72936	69.0964
11.74636	31.7044
11.76336	-1.02105
11.78036	23.16836
11.79736	54.48864
11.81436	36.48874
11.83136	-19.73893
11.84836	-47.8749
11.86536	-7.20677
11.88236	24.47253
11.89936	-44.07446
11.91636	-40.63359
11.93336	22.68717
11.95036	11.52059
11.96736	24.99592
11.98436	5.97668
12.00136	11.57053
12.01836	-21.83486
12.03536	4.68153
12.05236	-6.74769
12.06936	-14.68205
12.08636	6.70946
12.10336	-24.08858
12.12036	-3.8907
12.13736	33.53446
12.15436	-10.78659
12.17136	10.27678
12.18836	-15.02356
12.20536	-8.22009
12.22236	-34.59755
12.23936	-21.76243
12.25636	11.78826
12.27336	9.1107
12.29036	19.42817
12.30736	14.73787
12.32436	26.28933
12.34136	5.79988
12.35836	-7.59474
12.37536	12.93065
12.39236	36.83507
12.40936	34.63791
12.42636	-17.14279
12.44336	-9.57768
12.46036	8.02661
12.47736	41.6607
12.49436	29.35186
12.51136	43.19458
12.52836	85.67668
12.54536	93.9113
12.56236	70.38269
12.57936	72.27792
12.59636	150.55627
12.61336	180.51795
12.63036	160.92936
12.64736	157.62856
12.66436	124.40451
12.68136	152.98085
12.69836	192.7748
12.71536	223.46113
12.73236	204513
12.74936	224.78558
12.76636	311.93517
12.78336	332.98429
12.80036	430.58493
12.81736	443.17373
12.83436	427.00217
12.85136	604.29652
12.86836	631.06304
12.88536	735.04885
12.90236	1020.61557
12.91936	1077.68132
12.93636	1295.05008
12.95336	1542.65236
12.97036	1947.44503
12.98736	2401.85811
13.00436	2588.9531
13.02136	2038.08625
13.03836	1366.24892
13.05536	763.55316
13.07236	299.77443
13.08936	181.34216
13.10636	140.96746
13.12336	90.55474
13.14036	10.92966
13.15736	34.6108
13.17436	58.57706
13.19136	46.5449
13.20836	27.03644
13.22536	14.07319
13.24236	13.75137
13.25936	28.91058
13.27636	7.15899
13.29336	16.67497
13.31036	22.32604
13.32736	-8.26408
13.34436	18.51238
13.36136	33.62679
13.37836	62.82446
13.39536	87.21711
13.41236	33.87881
13.42936	-19.50003
13.44636	1.36418
13.46336	19.83696
13.48036	27.55264
13.49736	3.71449
13.51436	19.61115
13.53136	74.33789
13.54836	33.29944
13.56536	38.38517
13.58236	29.8433
13.59936	11.88871
13.61636	27.83151
13.63336	0.75902
13.65036	13.93745
13.66736	7.80163
13.68436	-20.98747
13.70136	-24.68046
13.71836	4.26299
13.73536	-55.6013
13.75236	23.64773
13.76936	52.53918
13.78636	-0.77644
13.80336	-22.05307
13.82036	22.05199
13.83736	32.8261
13.85436	5.22128
13.87136	11.48243
13.88836	34.20043
13.90536	39.12898
13.92236	45.75442
13.93936	-3.33072E-4
13.95636	22.54976
13.97336	-0.27239
13.99036	7.83438
14.00736	56.98596
14.02436	89.16688
14.04136	-8.94362
14.05836	7.01171
14.07536	63.88517
14.09236	33.61497
14.10936	63.38463
14.12636	15.23111
14.14336	24.97
14.16036	22.00517
14.17736	18.66508
14.19436	49.03767
14.21136	33.29384
14.22836	15.32927
14.24536	27.96993
14.26236	67.80493
14.27936	60.51054
14.29636	6.93887
14.31336	-16.30101
14.33036	-3.65708
14.34736	41.81162
14.36436	52.65096
14.38136	58.27981
14.39836	27.85507
14.41536	6.59289
14.43236	-17.75506
14.44936	7.46192
14.46636	23.82034
14.48336	23.84866
14.50036	2.98962
14.51736	29.69346
14.53436	39.74737
14.55136	4.79615
14.56836	44.09453
14.58536	54.30434
14.60236	40.94008
14.61936	63.43937
14.63636	58.73122
14.65336	46.09802
14.67036	5.27628
14.68736	53.5177
14.70436	97.07541
14.72136	53.16841
14.73836	43.39881
14.75536	-1.27826
14.77236	75.13146
14.78936	86.8211
14.80636	68.72279
14.82336	16.10325
14.84036	64.44125
14.85736	21.8675
14.87436	41.24357
14.89136	29.77448
14.90836	0
14.92536	69.42776
14.94236	54.40219
14.95936	62.36876
14.97636	49.55659
14.99336	25.52253
15.01036	76.36146
15.02736	65.55382
15.04436	28.86494
15.06136	35.18723
15.07836	44.79976
15.09536	62.09947
15.11236	58.67756
15.12936	75.43044
15.14636	47.49664
15.16336	72.79661
15.18036	40.24807
15.19736	24.43652
15.21436	63.28536
15.23136	84.98192
15.24836	82.8849
15.26536	68634
15.28236	81.98501
15.29936	55.86671
15.31636	69.99877
15.33336	131.15876
15.35036	155.75138
15.36736	145.47477
15.38436	136.23463
15.40136	163.49721
15.41836	172.01692
15.43536	188.07446
15.45236	171.15752
15.46936	199.05178
15.48636	271.21858
15.50336	303.30525
15.52036	304.1663
15.53736	308.26997
15.55436	417.36479
15.57136	397.65154
15.58836	434.69617
15.60536	411.50378
15.62236	515.06968
15.63936	705.82463
15.65636	761.05329
15.67336	926.83652
15.69036	1033.20266
15.70736	1110.26126
15.72436	1317.22495
15.74136	1533.98846
15.75836	1846.94848
15.77536	2300.48365
15.79236	2728.96159
15.80936	3395.91573
15.82636	4184.9942
15.84336	4908.29001
15.86036	4304.97072
15.87736	3526.45524
15.89436	2641.21121
15.91136	1683.5305
15.92836	927.60981
15.94536	572.69156
15.96236	337.74126
15.97936	228.92721
15.99636	185.56582
16.01336	156.97109
16.03036	132.62468
16.04736	115.86484
16.06436	125.82584
16.08136	96.66547
16.09836	100.69745
16.11536	108.67545
16.13236	104.92147
16.14936	87.32965
16.16636	35.22341
16.18336	29.26615
16.20036	70.52244
16.21736	58.67361
16.23436	49.18713
16.25136	40.84061
16.26836	29.04509
16.28536	59.71944
16.30236	63.4034
16.31936	68.23855
16.33636	76.81228
16.35336	69.86771
16.37036	47.24021
16.38736	34.2624
16.40436	45.45883
16.42136	57.41533
16.43836	40.96363
16.45536	39.96315
16.47236	-2.06106
16.48936	3.56746
16.50636	30.47734
16.52336	74.84305
16.54036	48.38342
16.55736	6.64625
16.57436	23.82801
16.59136	11.0054
16.60836	26.22322
16.62536	36.12738
16.64236	90.93993
16.65936	27.62793
16.67636	13.48048
16.69336	76.08301
16.71036	60.46104
16.72736	39.9504
16.74436	14.92734
16.76136	25.00583
16.77836	32.32832
16.79536	35.39027
16.81236	37.28602
16.82936	-4.78921
16.84636	4.57927
16.86336	31.37875
16.88036	105.24636
16.89736	4.09228
16.91436	1.85925
16.93136	23.46799
16.94836	5.4614
16.96536	26.18484
16.98236	16.69803
16.99936	40.25606
17.01636	6.92363
17.03336	9.24454
17.05036	15.38415
17.06736	-8.17992
17.08436	7.45929
17.10136	15.74913
17.11836	15.03702
17.13536	-5.61522
17.15236	35.7034
17.16936	22.56028
17.18636	5.76606
17.20336	43.00751
17.22036	30.44392
17.23736	26.50835
17.25436	41.1622
17.27136	56.15301
17.28836	42.84846
17.30536	17.03233
17.32236	30.61207
17.33936	19.38906
17.35636	43.30052
17.37336	41.3442
17.39036	4.05551
17.40736	39.21519
17.42436	25.52629
17.44136	32.94118
17.45836	26.12988
17.47536	44.41372
17.49236	48.41591
17.50936	11.76409
17.52636	14.83265
17.54336	7.25305
17.56036	26.80545
17.57736	54.06488
17.59436	48.69917
17.61136	45.52994
17.62836	-16.13526
17.64536	31.32015
17.66236	11.41524
17.67936	32.02315
17.69636	7.25139
17.71336	28.9162
17.73036	73.86048
17.74736	43.33272
17.76436	44.87403
17.78136	35.12078
17.79836	48.60914
17.81536	60565
17.83236	62.5981
17.84936	69.00969
17.86636	46.20471
17.88336	89.05437
17.90036	31.17477
17.91736	21.55591
17.93436	72.43843
17.95136	149.40437
17.96836	135.37381
17.98536	142.13719
18.00236	128.52936
18.01936	167.38562
18.03636	204.07686
18.05336	244.57396
18.07036	278.37144
18.08736	294.67709
18.10436	383.1985
18.12136	465.33555
18.13836	568.12698
18.15536	754.82054
18.17236	827.88465
18.18936	789.78788
18.20636	674.99349
18.22336	484.04531
18.24036	335.83448
18.25736	198.56849
18.27436	108.68834
18.29136	104.78962
18.30836	92.25923
18.32536	63.18498
18.34236	70.05831
18.35936	60.42287
18.37636	36.54327
18.39336	47.65034
18.41036	41.5417
18.42736	40.7025
18.44436	15.25685
18.46136	18.25696
18.47836	51.34538
18.49536	5.13447
18.51236	52.60603
18.52936	27.62606
18.54636	18.22069
18.56336	41.29334
18.58036	-5.66445
18.59736	25.00559
18.61436	18.50607
18.63136	51.53732
18.64836	35.30965
18.66536	67.10511
18.68236	39.13372
18.69936	32.21759
18.71636	-22.8425
18.73336	37.68216
18.75036	13.59751
18.76736	18.14696
18.78436	17.12108
18.80136	-14.83071
18.81836	3.02056
18.83536	10.57299
18.85236	9.51826
18.86936	12.07666
18.88636	31.13803
18.90336	21.03147
18.92036	14.85737
18.93736	19.97306
18.95436	14.31775
18.97136	33.48127
18.98836	34.53533
19.00536	34.20962
19.02236	21.64426
19.03936	9.76393
19.05636	34.82582
19.07336	30.51175
19.09036	16.03236
19.10736	22.77202
19.12436	21.6374
19.14136	36.99984
19.15836	36.35177
19.17536	18.62086
19.19236	-6.26366
19.20936	19.86987
19.22636	66.91738
19.24336	75.11316
19.26036	42.15851
19.27736	18.77397
19.29436	22.61375
19.31136	17.80505
19.32836	20.30011
19.34536	31.43754
19.36236	26.59233
19.37936	23.5234
19.39636	46.51755
19.41336	49.4832
19.43036	23.63582
19.44736	42.0875
19.46436	13.96837
19.48136	17.54125
19.49836	2.67011
19.51536	11.44823
19.53236	8.77639
19.54936	18.02996
19.56636	-12.44815
19.58336	14.65279
19.60036	72.62788
19.61736	62.36917
19.63436	37.34338
19.65136	4.43328
19.66836	22.9574
19.68536	26.94134
19.70236	50.63357
19.71936	41.50131
19.73636	86.48305
19.75336	-9.31466
19.77036	41.90131
19.78736	53.59807
19.80436	-4.67569
19.82136	38.86443
19.83836	10.95912
19.85536	6.26092
19.87236	58.46622
19.88936	12.0178
19.90636	-3.0413
19.92336	-0.60982
19.94036	51.48406
19.95736	16.58648
19.97436	21.23617
19.99136	6.44365
20.00836	26.3467
20.02536	51.59231
20.04236	46.74724
20.05936	46.86139
20.07636	23.74888
20.09336	8.68136
20.11036	15.1293
20.12736	17.70736
20.14436	38801
20.16136	50.67057
20.17836	40.51595
20.19536	60.66356
20.21236	67.29581
20.22936	35.02752
20.24636	26.78015
20.26336	30.78857
20.28036	36.51637
20.29736	53.08582
20.31436	54.26325
20.33136	49.8072
20.34836	55.36406
20.36536	37.03096
20.38236	11.20856
20.39936	19.90401
20.41636	5.0076
20.43336	10.68385
20.45036	9.29814
20.46736	9.65113
20.48436	12.8424
20.50136	29.80405
20.51836	37.44644
20.53536	13.55514
20.55236	9.1196
20.56936	35.23031
20.58636	28.3358
20.60336	19.21415
20.62036	23.53411
20.63736	15.1156
20.65436	-20.7399
20.67136	15.74584
20.68836	26.50334
20.70536	59.6061
20.72236	26.11844
20.73936	-33.69614
20.75636	-9.40486
20.77336	37.45178
20.79036	4.84312
20.80736	41.81449
20.82436	-28.66583
20.84136	26.36687
20.85836	14.80172
20.87536	27.82068
20.89236	14.22208
20.90936	43.63614
20.92636	21.08563
20.94336	34.03146
20.96036	33.74448
20.97736	14.77964
20.99436	14.19584
21.01136	17.25428
21.02836	3.52489
21.04536	5.8603
21.06236	-8.07893
21.07936	11.68027
21.09636	16.59988
21.11336	18.37571
21.13036	-10.20138
21.14736	-15.95707
21.16436	18.43299
21.18136	36.61678
21.19836	27.00526
21.21536	-1.43558
21.23236	-12.90405
21.24936	27.90394
21.26636	42.31518
21.28336	6.21727
21.30036	4.27777
21.31736	14.46714
21.33436	29.02279
21.35136	5.00177
21.36836	-5.09684
21.38536	-2.73785
21.40236	19.62137
21.41936	13.94366
21.43636	31.09114
21.45336	2.94491
21.47036	40.30718
21.48736	29.91782
21.50436	31.63744
21.52136	54.53261
21.53836	-22.25945
21.55536	31.33096
21.57236	64.85302
21.58936	37.22917
21.60636	16.39231
21.62336	53.06226
21.64036	93.74104
21.65736	55.14874
21.67436	63.66714
21.69136	58.31091
21.70836	14.8643
21.72536	46.2375
21.74236	67.23509
21.75936	118.47019
21.77636	110.37828
21.79336	43.99827
21.81036	107.25296
21.82736	87.46826
21.84436	92.07957
21.86136	104.52935
21.87836	96.26608
21.89536	65.77023
21.91236	80.28213
21.92936	122.11256
21.94636	121.46995
21.96336	150.13164
21.98036	181.96534
21.99736	201.3912
22.01436	224.55439
22.03136	260.48954
22.04836	290.07906
22.06536	362.83349
22.08236	394.4486
22.09936	463.82491
22.11636	551.71391
22.13336	652.17011
22.15036	805.40829
22.16736	972.44333
22.18436	1137.13636
22.20136	1394.52799
22.21836	1694.88673
22.23536	2038.19231
22.25236	2492.20728
22.26936	3093.64782
22.28636	3841.49232
22.30336	4784.63541
22.32036	5621.72118
22.33736	5789.45154
22.35436	5281.31167
22.37136	4749.93067
22.38836	4486.13634
22.40536	4109.41019
22.42236	4057.49468
22.43936	4305.76241
22.45636	4894.38845
22.47336	5423.21377
22.49036	5156.30102
22.50736	4128.5163
22.52436	3308.11906
22.54136	2627.53176
22.55836	1743.09412
22.57536	998.01731
22.59236	605.28126
22.60936	371.18512
22.62636	281.52203
22.64336	213.26867
22.66036	147.38557
22.67736	182.52252
22.69436	173.29441
22.71136	153.60518
22.72836	127.67563
22.74536	112.67975
22.76236	184.27339
22.77936	126.17827
22.79636	108.72279
22.81336	52.45238
22.83036	73.0027
22.84736	18.17093
22.86436	50.41463
22.88136	50.24489
22.89836	62.97598
22.91536	44.01228
22.93236	21.34325
22.94936	27.90932
22.96636	25.94059
22.98336	52.90044
23.00036	18.99888
23.01736	5.73413
23.03436	25.01364
23.05136	31.02625
23.06836	56.48236
23.08536	45.28785
23.10236	50.36639
23.11936	40.26151
23.13636	41.76362
23.15336	43.08754
23.17036	17.0513
23.18736	20.44199
23.20436	26.79777
23.22136	7.91007
23.23836	20.91013
23.25536	23.92202
23.27236	15.51459
23.28936	33.02985
23.30636	40.35909
23.32336	35.69067
23.34036	45.85841
23.35736	41.55041
23.37436	51.66098
23.39136	47.02905
23.40836	25.70087
23.42536	25.07691
23.44236	42.36862
23.45936	33.27143
23.47636	32.41952
23.49336	-9.71536
23.51036	24.70151
23.52736	-20.25281
23.54436	3.86147
23.56136	-2.81532
23.57836	9.78073
23.59536	29.24949
23.61236	27.34262
23.62936	19.90538
23.64636	37.45276
23.66336	2.83463
23.68036	23.80493
23.69736	64.40632
23.71436	29.40123
23.73136	50.21832
23.74836	28.34298
23.76536	-11.49076
23.78236	23.17916
23.79936	36.84095
23.81636	10.21681
23.83336	-5.4473
23.85036	26.82978
23.86736	31.88664
23.88436	18.48756
23.90136	27.19223
23.91836	26.90529
23.93536	52.70797
23.95236	57.08328
23.96936	35.05233
23.98636	50.30445
24.00336	47.05421
24.02036	76.64965
24.03736	75.33861
24.05436	80.62237
24.07136	84.39865
24.08836	84.93328
24.10536	116.15705
24.12236	157.89733
24.13936	186.62571
24.15636	220.66902
24.17336	264.71379
24.19036	321.83645
24.20736	420.82607
24.22436	545.4607
24.24136	631.8464
24.25836	655.9597
24.27536	573.08548
24.29236	465.44961
24.30936	374.71322
24.32636	289.22854
24.34336	212.96625
24.36036	145.68174
24.37736	85.73354
24.39436	57.08671
24.41136	57.93662
24.42836	12.0973
24.44536	28.42712
24.46236	27.90905
24.47936	37.87378
24.49636	32.36909
24.51336	37.73404
24.53036	14.74191
24.54736	41.71306
24.56436	31.07949
24.58136	8.61118
24.59836	-2.63035
24.61536	24.44704
24.63236	30.97369
24.64936	3.91231
24.66636	12.76181
24.68336	70.87086
24.70036	47.50029
24.71736	3.24157
24.73436	43.11955
24.75136	53.52932
24.76836	42865
24.78536	13.65917
24.80236	33.06014
24.81936	47.81625
24.83636	49.53109
24.85336	52.33713
24.87036	56.23262
24.88736	61.49672
24.90436	0
24.92136	5.57351
24.93836	36.98679
24.95536	12.00225
24.97236	13.22423
24.98936	30.6314
25.00636	0.61979
25.02336	10.00158
25.04036	44.94872
25.05736	9.3394
25.07436	10.21914
25.09136	14.92281
25.10836	44.51545
25.12536	60.58929
25.14236	11.07672
25.15936	0.59061
25.17636	24.29813
25.19336	12.84999
25.21036	9.37451
25.22736	15.72824
25.24436	29.3668
25.26136	40.85803
25.27836	33.10607
25.29536	23.40887
25.31236	4.09443
25.32936	12.07931
25.34636	30.85257
25.36336	49.77777
25.38036	34.36519
25.39736	25.68612
25.41436	26.2203
25.43136	19.71652
25.44836	24.62976
25.46536	30.89539
25.48236	86.77417
25.49936	13.59968
25.51636	45.76634
25.53336	-12.35667
25.55036	28.50296
25.56736	33.80489
25.58436	-29.69387
25.60136	11.05428
25.61836	9.57812
25.63536	37.24604
25.65236	-1.25534
25.66936	41.63296
25.68636	19.17328
25.70336	15.30421
25.72036	45.63306
25.73736	42.68151
25.75436	22.43445
25.77136	18.65439
25.78836	66.70227
25.80536	67.5869
25.82236	119.16141
25.83936	82.98595
25.85636	77.72785
25.87336	86.17329
25.89036	120.31565
25.90736	269.92919
25.92436	331.03263
25.94136	390.72891
25.95836	501.82991
25.97536	560.42063
25.99236	461.87819
26.00936	357.53929
26.02636	328.66152
26.04336	266.72004
26.06036	198.14914
26.07736	134.10055
26.09436	61.91964
26.11136	52.10981
26.12836	31.67585
26.14536	32.63802
26.16236	43.67641
26.17936	46.45164
26.19636	41.49962
26.21336	33.61146
26.23036	21.2235
26.24736	26.64795
26.26436	-0.69562
26.28136	-4.75458
26.29836	18.32869
26.31536	46.53472
26.33236	44.73449
26.34936	6.53626
26.36636	-8.47714
26.38336	36.70594
26.40036	40.75391
26.41736	24.6858
26.43436	20.45398
26.45136	23.62219
26.46836	46.44167
26.48536	49.50905
26.50236	35.80135
26.51936	36.89886
26.53636	40.34456
26.55336	35.6297
26.57036	79.71759
26.58736	37.28376
26.60436	30.89662
26.62136	31.93429
26.63836	38.08732
26.65536	38.47455
26.67236	2.86492
26.68936	17.14746
26.70636	88.42104
26.72336	52.17356
26.74036	59.73511
26.75736	32.44825
26.77436	87.72596
26.79136	47.63901
26.80836	11.97378
26.82536	23.63759
26.84236	22.39033
26.85936	52.73813
26.87636	78.87798
26.89336	68.73906
26.91036	67.97184
26.92736	69.10062
26.94436	82.36959
26.96136	91.45367
26.97836	81.29631
26.99536	102.81728
27.01236	92.1605
27.02936	132.47392
27.04636	143.0619
27.06336	157.11225
27.08036	176.78024
27.09736	227.92498
27.11436	285.34986
27.13136	337.29837
27.14836	395.94969
27.16536	477.22522
27.18236	596.24926
27.19936	716.39554
27.21636	904.30614
27.23336	1177.64138
27.25036	1433.42787
27.26736	1873.74822
27.28436	2256.11913
27.30136	2413.81844
27.31836	2199977
27.33536	1946.54248
27.35236	1824.17791
27.36936	1804.45767
27.38636	1577.17283
27.40336	1453.21777
27.42036	1472.14732
27.43736	1613.7713
27.45436	1906.48921
27.47136	2363.04945
27.48836	3081.01469
27.50536	3934.82106
27.52236	5123.55251
27.53936	5790.65309
27.55636	5615.18383
27.57336	4396.54992
27.59036	3558.81617
27.60736	3189.37256
27.62436	2673.39851
27.64136	1845.83348
27.65836	992.83404
27.67536	600.79737
27.69236	389.10181
27.70936	313.64669
27.72636	249.49232
27.74336	212.46543
27.76036	148.20133
27.77736	140.34685
27.79436	153.71553
27.81136	98.86028
27.82836	69.37799
27.84536	104.60941
27.86236	109.01741
27.87936	97.18745
27.89636	80.91629
27.91336	67.79261
27.93036	55.38985
27.94736	58.17145
27.96436	61.95132
27.98136	74.39978
27.99836	84.46327
28.01536	77.67393
28.03236	42.94265
28.04936	45.41661
28.06636	54.80725
28.08336	22.92516
28.10036	31.1377
28.11736	65.43497
28.13436	87.25878
28.15136	70.66789
28.16836	39.44476
28.18536	39.11003
28.20236	71.79689
28.21936	63.87349
28.23636	60.15341
28.25336	66.74299
28.27036	79.58165
28.28736	59.39823
28.30436	50.09294
28.32136	52.98024
28.33836	32.08329
28.35536	46.59005
28.37236	74.2168
28.38936	38.60342
28.40636	28.32658
28.42336	16.02869
28.44036	44.26472
28.45736	35.46384
28.47436	-4.86657
28.49136	64.19592
28.50836	53.03362
28.52536	92.93873
28.54236	85.45975
28.55936	90.05811
28.57636	71.79537
28.59336	99.90311
28.61036	71.79096
28.62736	114.42194
28.64436	118.09699
28.66136	141.31315
28.67836	151.28191
28.69536	151.12691
28.71236	131.79649
28.72936	126.78906
28.74636	170.30776
28.76336	174.92389
28.78036	168.60601
28.79736	248.09765
28.81436	234.00481
28.83136	341.83672
28.84836	377.24192
28.86536	458.28592
28.88236	589.29081
28.89936	741.91877
28.91636	959.00263
28.93336	1260.32327
28.95036	1588.03184
28.96736	1798.28186
28.98436	1694.80329
29.00136	1358.96868
29.01836	1139.54396
29.03536	1045.53809
29.05236	905.05087
29.06936	652.0106
29.08636	406.04698
29.10336	210.90205
29.12036	133.24712
29.13736	137.31351
29.15436	138.79559
29.17136	118.93164
29.18836	85.74388
29.20536	52.19238
29.22236	51.06001
29.23936	58.20707
29.25636	54.99241
29.27336	67.05239
29.29036	81.95803
29.30736	84.10416
29.32436	66.76561
29.34136	75.91789
29.35836	59.2455
29.37536	56.79569
29.39236	33.89829
29.40936	32.53769
29.42636	56.12206
29.44336	19.25884
29.46036	59.75709
29.47736	37.93416
29.49436	14.7589
29.51136	48.36656
29.52836	4.27467
29.54536	40.97533
29.56236	40.43893
29.57936	51.11238
29.59636	4.52927
29.61336	47.98899
29.63036	54.14472
29.64736	51.03697
29.66436	90.68665
29.68136	38.63853
29.69836	67.52747
29.71536	-0.21846
29.73236	21.07338
29.74936	31.26301
29.76636	35.42227
29.78336	56.16015
29.80036	85.90719
29.81736	37.85784
29.83436	42.08078
29.85136	36.82286
29.86836	49.83723
29.88536	39.26275
29.90236	41.70785
29.91936	38.00444
29.93636	21.07777
29.95336	29.33523
29.97036	36.69287
29.98736	30.67249
30.00436	53.52275
30.02136	65.46298
30.03836	80.13007
30.05536	97.63456
30.07236	106.19518
30.08936	89.78087
30.10636	114.85869
30.12336	157.79121
30.14036	181.28998
30.15736	211.04109
30.17436	237.3669
30.19136	279.8355
30.20836	375.99479
30.22536	481.27666
30.24236	589.19613
30.25936	746.82396
30.27636	831.34615
30.29336	860.28266
30.31036	713.65224
30.32736	604.72502
30.34436	505.19092
30.36136	518.83878
30.37836	427.95645
30.39536	260.86709
30.41236	150.96252
30.42936	112.4062
30.44636	85.35972
30.46336	41.71582
30.48036	30.44634
30.49736	42.5759
30.51436	85.47736
30.53136	38.13354
30.54836	37.59083
30.56536	51.54368
30.58236	75.89109
30.59936	41.52757
30.61636	55.33605
30.63336	36.92263
30.65036	59.81712
30.66736	36.56728
30.68436	52.7902
30.70136	71.6456
30.71836	57.06537
30.73536	90.21909
30.75236	84.32178
30.76936	95.09582
30.78636	100.41672
30.80336	79.22779
30.82036	72.69188
30.83736	69.65951
30.85436	87.52663
30.87136	102.6963
30.88836	96.3321
30.90536	102.6964
30.92236	116.21902
30.93936	110.99276
30.95636	83.15747
30.97336	73.90397
30.99036	94.44838
31.00736	112.55717
31.02436	109.13048
31.04136	104.07214
31.05836	91.87144
31.07536	107.24841
31.09236	95.57695
31.10936	72.38401
31.12636	86.39275
31.14336	114.9383
31.16036	129.60488
31.17736	113.10158
31.19436	109.96072
31.21136	149.60551
31.22836	155.61406
31.24536	136.78088
31.26236	112.9707
31.27936	99.63285
31.29636	121.92144
31.31336	133.44744
31.33036	131.25748
31.34736	149.56658
31.36436	138.57366
31.38136	137.97868
31.39836	162.05719
31.41536	180.80522
31.43236	219.41684
31.44936	227.72435
31.46636	247.68862
31.48336	326.19694
31.50036	295.24396
31.51736	441.72171
31.53436	467.49072
31.55136	563.58765
31.56836	709.95041
31.58536	776.00131
31.60236	983.97173
31.61936	1157.73022
31.63636	1400.56398
31.65336	1738.37825
31.67036	2294.95904
31.68736	2777.46452
31.70436	3681.10871
31.72136	4581.87733
31.73836	5746.5105
31.75536	7386.90127
31.77236	9752.3142
31.78936	12350.67234
31.80636	14053.34671
31.82336	13673.16269
31.84036	11260.41544
31.85736	8974.81028
31.87436	8164.72557
31.89136	7627.19048
31.90836	6287.31585
31.92536	4423.75139
31.94236	2734.95264
31.95936	1636.50349
31.97636	1087.29083
31.99336	853.95644
32.01036	694781
32.02736	569.16134
32.04436	447.48688
32.06136	362.43653
32.07836	360.18331
32.09536	331.94666
32.11236	272.36538
32.12936	251.70728
32.14636	222.13733
32.16336	172.16821
32.18036	179.69059
32.19736	172.67818
32.21436	166.04134
32.23136	170.15508
32.24836	159.20485
32.26536	139.37707
32.28236	158.2096
32.29936	126.8504
32.31636	123.70973
32.33336	127.99396
32.35036	116.50772
32.36736	136.68529
32.38436	136.20833
32.40136	112.46938
32.41836	121.86873
32.43536	109.72458
32.45236	118.37739
32.46936	120.89778
32.48636	77.05374
32.50336	75.37037
32.52036	103.44527
32.53736	55.39851
32.55436	47.31646
32.57136	69.41746
32.58836	58.45315
32.60536	46.87013
32.62236	45.8342
32.63936	72.33253
32.65636	81.71748
32.67336	71.66304
32.69036	70.65287
32.70736	81.94773
32.72436	83.43157
32.74136	48.15301
32.75836	55.68334
32.77536	43.99495
32.79236	39.90371
32.80936	50.96521
32.82636	77.5695
32.84336	82.29076
32.86036	58851
32.87736	62.40569
32.89436	55.55754
32.91136	38.97624
32.92836	27.29387
32.94536	43.57737
32.96236	45349
32.97936	27.85756
32.99636	29.64767
33.01336	53.22744
33.03036	73.03453
33.04736	59.82752
33.06436	53.43229
33.08136	55.01472
33.09836	63.61089
33.11536	43.22214
33.13236	39.41148
33.14936	46.89079
33.16636	37.18808
33.18336	27.31956
33.20036	16.93021
33.21736	31.25001
33.23436	48.41731
33.25136	55.98776
33.26836	52.73927
33.28536	40.73957
33.30236	21.49797
33.31936	21.86804
33.33636	50.42112
33.35336	31.53807
33.37036	49.00073
33.38736	51.9885
33.40436	40.6504
33.42136	18.09584
33.43836	24.12961
33.45536	34.55244
33.47236	48.66625
33.48936	41.53773
33.50636	32.63228
33.52336	45.16751
33.54036	25.91102
33.55736	40.85205
33.57436	25.93482
33.59136	49.92556
33.60836	18.06493
33.62536	53.60717
33.64236	46.95598
33.65936	29.33357
33.67636	51.68395
33.69336	4.48208
33.71036	39.28533
33.72736	21.58821
33.74436	14.52513
33.76136	35.83422
33.77836	32.92369
33.79536	46.49081
33.81236	35.9197
33.82936	18.42991
33.84636	9.36908
33.86336	23.7829
33.88036	39.36297
33.89736	28.51652
33.91436	31.31662
33.93136	43.49942
33.94836	30.74096
33.96536	21323
33.98236	19.69424
33.99936	1958
34.01636	3.70096
34.03336	11.90043
34.05036	44.75892
34.06736	47.34658
34.08436	12.4973
34.10136	5.68434E-14
34.11836	40.70503
34.13536	44.65662
34.15236	21.93907
34.16936	7.88914
34.18636	35.48978
34.20336	53.26172
34.22036	46.93534
34.23736	43.53629
34.25436	37.65099
34.27136	18.64547
34.28836	23.98126
34.30536	26.3161
34.32236	64.55393
34.33936	50.24298
34.35636	72.23858
34.37336	70.08849
34.39036	107.99141
34.40736	65.89352
34.42436	88.31632
34.44136	138.37725
34.45836	148.79496
34.47536	198.39083
34.49236	243.76863
34.50936	310.17032
34.52636	400.32618
34.54336	446.44611
34.56036	307.68861
34.57736	287.6648
34.59436	213.50053
34.61136	247.01141
34.62836	278.66521
34.64536	205.8224
34.66236	152.42245
34.67936	146.45931
34.69636	65.41099
34.71336	76.51618
34.73036	54.69321
34.74736	41.49629
34.76436	42.77361
34.78136	29.09176
34.79836	57.06212
34.81536	36.39598
34.83236	56.39092
34.84936	62.15646
34.86636	47.71468
34.88336	27.10504
34.90036	41.5015
34.91736	40.63566
34.93436	42.3271
34.95136	51.82195
34.96836	27.89432
34.98536	25.3397
35.00236	25.32564
35.01936	28.28666
35.03636	30.40287
35.05336	48.36774
35.07036	38.82779
35.08736	25.11895
35.10436	31.37523
35.12136	8.72178
35.13836	4.89969
35.15536	2.71792
35.17236	23.10737
35.18936	44.23785
35.20636	45.99163
35.22336	29.74994
35.24036	53.57979
35.25736	34.56099
35.27436	90.0321
35.29136	43.93218
35.30836	58.67815
35.32536	50.39669
35.34236	64.39553
35.35936	88.61132
35.37636	72.86223
35.39336	114.37786
35.41036	102.16137
35.42736	116.43022
35.44436	152.50778
35.46136	139.31348
35.47836	223.13207
35.49536	263.86807
35.51236	377.3835
35.52936	483.70366
35.54636	540.07696
35.56336	634.39418
35.58036	652.60235
35.59736	590.84129
35.61436	515.45723
35.63136	523.67505
35.64836	607.88538
35.66536	631.52456
35.68236	668.29685
35.69936	723.55982
35.71636	863.88699
35.73336	1103.15036
35.75036	1291.46248
35.76736	1279.20755
35.78436	1074.72468
35.80136	842.12072
35.81836	720.40784
35.83536	697.25241
35.85236	657.62916
35.86936	526.00499
35.88636	403.13422
35.90336	248.40039
35.92036	157.85951
35.93736	95.14122
35.95436	71.39496
35.97136	72.47804
35.98836	80.63669
36.00536	53.47334
36.02236	35.75371
36.03936	46.68388
36.05636	51.06877
36.07336	40.90665
36.09036	45.08817
36.10736	31.20784
36.12436	38.26131
36.14136	23.32279
36.15836	19.75466
36.17536	34.22582
36.19236	16.02245
36.20936	0.5307
36.22636	44.51072
36.24336	49.91243
36.26036	48.65501
36.27736	35.08702
36.29436	-21.25562
36.31136	7.92322
36.32836	24.85125
36.34536	20.50412
36.36236	4.07842
36.37936	12.23848
36.39636	26.38936
36.41336	7.05026
36.43036	7.03368
36.44736	27.20301
36.46436	34.26634
36.48136	18.94516
36.49836	-3.16567
36.51536	40.13023
36.53236	-9.63969
36.54936	53.75806
36.56636	-10.43524
36.58336	19.90487
36.60036	24.84132
36.61736	32.37464
36.63436	15.66694
36.65136	22.95811
36.66836	10.98039
36.68536	29.27161
36.70236	-8.29645
36.71936	7.37734
36.73636	32.0374
36.75336	21.99515
36.77036	1.20505
36.78736	-3.02262
36.80436	44.26688
36.82136	35.89617
36.83836	15.41691
36.85536	4.51281
36.87236	21.75555
36.88936	47.46024
36.90636	27.96238
36.92336	20.7978
36.94036	29.65488
36.95736	45.21972
36.97436	37.07337
36.99136	13.29363
37.00836	25.15632
37.02536	25.23475
37.04236	6.73996
37.05936	33.60563
37.07636	27.11154
37.09336	22.6727
37.11036	34.83884
37.12736	35.23793
37.14436	37.2862
37.16136	18.66231
37.17836	0.70532
37.19536	13.38153
37.21236	24.62855
37.22936	28.66348
37.24636	0.01813
37.26336	24.87805
37.28036	26.97459
37.29736	-2.48862
37.31436	23.48496
37.33136	13.47232
37.34836	26.03889
37.36536	0.53853
37.38236	19.24619
37.39936	31.12459
37.41636	9.79279
37.43336	19.67614
37.45036	55.21499
37.46736	21.21668
37.48436	26.75659
37.50136	19.36928
37.51836	45.20709
37.53536	49.22238
37.55236	46.67143
37.56936	12.69777
37.58636	36.5175
37.60336	37.41677
37.62036	-6.23513
37.63736	13.64195
37.65436	32.84157
37.67136	60.79113
37.68836	57.06418
37.70536	24.36598
37.72236	39.8284
37.73936	51.67144
37.75636	58.40163
37.77336	52.85853
37.79036	58.8588
37.80736	85.43886
37.82436	99.40283
37.84136	147.45695
37.85836	152.06099
37.87536	184.73961
37.89236	255.60854
37.90936	326.33464
37.92636	430.55827
37.94336	527.26986
37.96036	560.86304
37.97736	523.12293
37.99436	447.28023
38.01136	358.53299
38.02836	328.2775
38.04536	341.86641
38.06236	327.84762
38.07936	265.72042
38.09636	193.60994
38.11336	133.74513
38.13036	101.46641
38.14736	84.32725
38.16436	75.4845
38.18136	62.75759
38.19836	39.37649
38.21536	51.72823
38.23236	63.88294
38.24936	68.82519
38.26636	64.30351
38.28336	50.02634
38.30036	57.13292
38.31736	56.79184
38.33436	61.67186
38.35136	59.9973
38.36836	49.91045
38.38536	70.93412
38.40236	23.64282
38.41936	63.98427
38.43636	50.92945
38.45336	34.80758
38.47036	64.73535
38.48736	68.87637
38.50436	20.10332
38.52136	49.16277
38.53836	67.69981
38.55536	86.73889
38.57236	96.57606
38.58936	71.79195
38.60636	82.61527
38.62336	105.27249
38.64036	104.69293
38.65736	95.30716
38.67436	90.77224
38.69136	107.64078
38.70836	117.72648
38.72536	144.01106
38.74236	148.15957
38.75936	138.33968
38.77636	196.56085
38.79336	248.26498
38.81036	274.94819
38.82736	317.51588
38.84436	401.78555
38.86136	536.04173
38.87836	696.57881
38.89536	889.22598
38.91236	1116.67043
38.92936	1364.64295
38.94636	1595.73732
38.96336	1590.96485
38.98036	1357.87354
38.99736	1154.8259
39.01436	1034.13931
39.03136	1069.38993
39.04836	1122.38898
39.06536	1031.67828
39.08236	920.21743
39.09936	830.69522
39.11636	849.33341
39.13336	917.67548
39.15036	1139.70568
39.16736	1496.30151
39.18436	1858.56778
39.20136	2277.57623
39.21836	2624.92411
39.23536	2481.87871
39.25236	2282.13212
39.26936	2109.35244
39.28636	2161.31172
39.30336	2373.55985
39.32036	2306.23489
39.33736	1913.34211
39.35436	1335.89184
39.37136	1037.37905
39.38836	890.73243
39.40536	862.21937
39.42236	744.98991
39.43936	517.44197
39.45636	365.27747
39.47336	271.95122
39.49036	187.19261
39.50736	189.28081
39.52436	141.15948
39.54136	136.91728
39.55836	108.15554
39.57536	83.40722
39.59236	102.78935
39.60936	71.51828
39.62636	100.41128
39.64336	99.63792
39.66036	88.9426
39.67736	78.90479
39.69436	80.24453
39.71136	48.37056
39.72836	36.94781
39.74536	33.17427
39.76236	50.41696
39.77936	52.62513
39.79636	52.07966
39.81336	52.40345
39.83036	65.08775
39.84736	68.38414
39.86436	44.78754
39.88136	44.22582
39.89836	42.17972
39.91536	39.80994
39.93236	45.62207
39.94936	45.21493
39.96636	52.98492
39.98336	42.43804
40.00036	35.65064
40.01736	28.2965
40.03436	44.80366
40.05136	59.05228
40.06836	54.74691
40.08536	52.11985
40.10236	39.00259
40.11936	12.36765
40.13636	36.25844
40.15336	53.87698
40.17036	58.83079
40.18736	56.5977
40.20436	74.60633
40.22136	66.56858
40.23836	54.80605
40.25536	79.89797
40.27236	26.9083
40.28936	63.7731
40.30636	99.33546
40.32336	100.02875
40.34036	120.49258
40.35736	132.08219
40.37436	181.78277
40.39136	181.37057
40.40836	216.33656
40.42536	190.78779
40.44236	146.31165
40.45936	95.47547
40.47636	124.19606
40.49336	151.18967
40.51036	119.66605
40.52736	109.45143
40.54436	76.06101
40.56136	42.79546
40.57836	58.67732
40.59536	29.82705
40.61236	39.73691
40.62936	45.4994
40.64636	55.94121
40.66336	51.74848
40.68036	68.56869
40.69736	64.78291
40.71436	53.57918
40.73136	43.67738
40.74836	45.59751
40.76536	67.25513
40.78236	74.13908
40.79936	85.31332
40.81636	65.58662
40.83336	28.68567
40.85036	24.68468
40.86736	39.25526
40.88436	49.53605
40.90136	73.61102
40.91836	57.87705
40.93536	37.64326
40.95236	39.34
40.96936	23.09517
40.98636	42.72594
41.00336	50.14508
41.02036	21.65228
41.03736	26.73388
41.05436	43.76036
41.07136	51.60137
41.08836	79.38834
41.10536	57.98111
41.12236	34.16146
41.13936	34.56519
41.15636	38.34168
41.17336	36.30154
41.19036	32.38699
41.20736	33.17682
41.22436	42.57799
41.24136	31.81996
41.25836	15.69808
41.27536	37.11578
41.29236	26.58388
41.30936	29.86246
41.32636	14.40057
41.34336	10.07838
41.36036	41.94484
41.37736	50.85222
41.39436	6.49961
41.41136	58.99872
41.42836	26.79147
41.44536	46.35745
41.46236	31273
41.47936	37.87169
41.49636	22.81426
41.51336	63.86995
41.53036	47.5234
41.54736	37.27343
41.56436	68.97892
41.58136	34.51665
41.59836	30.5307
41.61536	24.70936
41.63236	38.46493
41.64936	59.92919
41.66636	37.53812
41.68336	48.6149
41.70036	58.65713
41.71736	59.80266
41.73436	47.40025
41.75136	44.85925
41.76836	26.2489
41.78536	25.2685
41.80236	46.74593
41.81936	10.86407
41.83636	7.94765
41.85336	16.71977
41.87036	20.58934
41.88736	39.19534
41.90436	46.52903
41.92136	38.55187
41.93836	20.97206
41.95536	26.45931
41.97236	58.84926
41.98936	58.4056
42.00636	14.29894
42.02336	19.85709
42.04036	43.85843
42.05736	47.33701
42.07436	50.15246
42.09136	51.64614
42.10836	27.30856
42.12536	37.03277
42.14236	38.50086
42.15936	23.48706
42.17636	35.56558
42.19336	16.20246
42.21036	20.17284
42.22736	42.57993
42.24436	37.81928
42.26136	55.00784
42.27836	8.61091
42.29536	21.07719
42.31236	44.51897
42.32936	41.26376
42.34636	55.08957
42.36336	34.06358
42.38036	42.05973
42.39736	37.46086
42.41436	18.97073
42.43136	55.21433
42.44836	71.0308
42.46536	49.66589
42.48236	0
42.49936	15.22378
42.51636	66.62087
42.53336	29.2213
42.55036	17.9836
42.56736	29.19193
42.58436	36.21197
42.60136	39.36758
42.61836	24.26004
42.63536	58.36721
42.65236	59.52254
42.66936	18.58481
42.68636	42.66278
42.70336	53.09014
42.72036	16103
42.73736	5.24914
42.75436	18.52408
42.77136	28.55143
42.78836	29.56733
42.80536	40.37903
42.82236	41.55976
42.83936	30.69846
42.85636	41.09094
42.87336	41.69232
42.89036	30.28819
42.90736	43.22257
42.92436	39.71038
42.94136	39.11202
42.95836	58.16272
42.97536	66.29443
42.99236	49.42791
43.00936	54.46976
43.02636	51.33804
43.04336	43.45594
43.06036	32.81
43.07736	36.05291
43.09436	23.30667
43.11136	52.82729
43.12836	61.99396
43.14536	44.31969
43.16236	41.45921
43.17936	64.21632
43.19636	57.2548
43.21336	62.37033
43.23036	15.41502
43.24736	31.00329
43.26436	49.13247
43.28136	43.10924
43.29836	74.86679
43.31536	79.06037
43.33236	100.8391
43.34936	80.02717
43.36636	99.67448
43.38336	101.12399
43.40036	115.11414
43.41736	114.18595
43.43436	118.92266
43.45136	176.87001
43.46836	204.74506
43.48536	235.21205
43.50236	252.34431
43.51936	329.19745
43.53636	479.21755
43.55336	513.7267
43.57036	459.82254
43.58736	335.64748
43.60436	307.98104
43.62136	272.10917
43.63836	273.89113
43.65536	278.83438
43.67236	279.26232
43.68936	253.89696
43.70636	165.16413
43.72336	107.30138
43.74036	88.57258
43.75736	66.83267
43.77436	65.27928
43.79136	86.96726
43.80836	85.53607
43.82536	71.42046
43.84236	70.48481
43.85936	59.91511
43.87636	48.02825
43.89336	62.74039
43.91036	81.89712
43.92736	74.33912
43.94436	49.59669
43.96136	68.73532
43.97836	75.07405
43.99536	58.43267
44.01236	72.75854
44.02936	90.59769
44.04636	82.02519
44.06336	66.45963
44.08036	71.92781
44.09736	85.44707
44.11436	84.63814
44.13136	84.5796
44.14836	83.52042
44.16536	97.29186
44.18236	84.91094
44.19936	94.26126
44.21636	80.21709
44.23336	119.17419
44.25036	118.16756
44.26736	122.42119
44.28436	83.86922
44.30136	110.69769
44.31836	116.83634
44.33536	113.19892
44.35236	198.34684
44.36936	170.11776
44.38636	183.97597
44.40336	247.07806
44.42036	311.16518
44.43736	377.32341
44.45436	472.60979
44.47136	561.62926
44.48836	610.5477
44.50536	523.99913
44.52236	413.45729
44.53936	348476
44.55636	276.73966
44.57336	342.18321
44.59036	357.80548
44.60736	329.02953
44.62436	301.5437
44.64136	219.01122
44.65836	205.19702
44.67536	167.25437
44.69236	114.34864
44.70936	106.09673
44.72636	82.53038
44.74336	93.68699
44.76036	138.91887
44.77736	141.53146
44.79436	121.56982
44.81136	110.33154
44.82836	107.01168
44.84536	102.19557
44.86236	104.49019
44.87936	112.52359
44.89636	131.13859
44.91336	142.04956
44.93036	128.3498
44.94736	123.34262
44.96436	126.20553
44.98136	144.97045
44.99836	157.90886
45.01536	172.08156
45.03236	176.30909
45.04936	155.01849
45.06636	169.29317
45.08336	173.2042
45.10036	245.7941
45.11736	244.70339
45.13436	270.87064
45.15136	342.00581
45.16836	374.98892
45.18536	427.77735
45.20236	552.80671
45.21936	662.72293
45.23636	821.99037
45.25336	1029.2698
45.27036	1404.46709
45.28736	1736.72653
45.30436	2268.98055
45.32136	2956.23529
45.33836	3695.24813
45.35536	3942.92255
45.37236	3774.90193
45.38936	2998.95075
45.40636	2309.09419
45.42336	2039.7538
45.44036	2106.04549
45.45736	2267.92676
45.47436	2261.41418
45.49136	2041.78815
45.50836	1675.26465
45.52536	1291.37835
45.54236	1143.06988
45.55936	1092.06517
45.57636	1272.28614
45.59336	1496.08443
45.61036	1928.75811
45.62736	2449.4671
45.64436	3216.71048
45.66136	3768.58801
45.67836	3949.13194
45.69536	3360.02557
45.71236	2482.97637
45.72936	2022.00078
45.74636	1873.12909
45.76336	1913.06692
45.78036	2021.76608
45.79736	1997.39409
45.81436	1691.01406
45.83136	1208.5135
45.84836	772.6734
45.86536	523.44685
45.88236	417.00593
45.89936	346.34047
45.91636	276.69522
45.93336	234.67106
45.95036	214.50298
45.96736	207.94531
45.98436	147.40165
46.00136	151.67262
46.01836	170.24193
46.03536	187.18686
46.05236	171.54273
46.06936	152.48043
46.08636	150.39555
46.10336	165.34902
46.12036	187.00781
46.13736	210.97569
46.15436	209.40977
46.17136	218.68186
46.18836	254.75805
46.20536	214.26157
46.22236	208661
46.23936	161.29108
46.25636	163.22046
46.27336	150.83585
46.29036	152.7438
46.30736	181.91268
46.32436	159.25981
46.34136	146.87233
46.35836	136.96738
46.37536	91.27218
46.39236	124.6074
46.40936	70.36369
46.42636	115.44114
46.44336	107.81971
46.46036	85.81098
46.47736	111.63649
46.49436	98.66413
46.51136	92.91896
46.52836	55.28031
46.54536	100.94082
46.56236	119.11484
46.57936	103.60162
46.59636	102.21392
46.61336	99.38284
46.63036	123.89173
46.64736	119.90679
46.66436	86.1841
46.68136	85.7349
46.69836	83.87271
46.71536	82.07299
46.73236	63.46571
46.74936	72.2695
46.76636	100.79666
46.78336	97.67347
46.80036	72.0792
46.81736	58.87967
46.83436	63.38216
46.85136	78.7327
46.86836	62.58392
46.88536	74.6876
46.90236	94.40731
46.91936	53.48219
46.93636	63.4188
46.95336	65.25139
46.97036	54.76219
46.98736	51.88657
47.00436	62.67482
47.02136	60.51844
47.03836	43.33773
47.05536	69.84463
47.07236	40.86412
47.08936	38.26085
47.10636	27.79853
47.12336	40.55648
47.14036	83.0807
47.15736	61.89928
47.17436	66.00428
47.19136	39.2499
47.20836	3.91224
47.22536	46.63578
47.24236	60.07526
47.25936	22.4846
47.27636	44.57046
47.29336	42.90422
47.31036	37.87756
47.32736	38.92201
47.34436	66.95745
47.36136	73.11298
47.37836	56.14075
47.39536	62.09681
47.41236	67.88204
47.42936	85.57143
47.44636	63.17346
47.46336	89.81648
47.48036	61.96936
47.49736	45.68531
47.51436	64.76503
47.53136	70.69539
47.54836	80.30675
47.56536	101.82294
47.58236	146.26313
47.59936	165.79907
47.61636	193.01599
47.63336	204705
47.65036	200.06236
47.66736	208.56546
47.68436	133.00194
47.70136	97.91893
47.71836	116.17964
47.73536	119.28889
47.75236	120.15982
47.76936	124.02572
47.78636	108.77715
47.80336	89.57586
47.82036	87.16381
47.83736	60.05392
47.85436	50.16339
47.87136	59.7779
47.88836	51.70699
47.90536	45.12893
47.92236	51.63156
47.93936	52.2564
47.95636	46.89936
47.97336	50.70266
47.99036	47.65578
48.00736	53.09624
48.02436	66.72698
48.04136	78.04883
48.05836	111.3755
48.07536	93.47321
48.09236	114.44502
48.10936	145.9112
48.12636	151.7453
48.14336	134.24395
48.16036	100.1206
48.17736	112.96681
48.19436	90.95518
48.21136	103.07996
48.22836	96.45957
48.24536	112.60165
48.26236	122.32279
48.27936	135.36313
48.29636	134.74273
48.31336	105.60802
48.33036	86.36024
48.34736	113.66271
48.36436	136.82696
48.38136	155.17601
48.39836	166.8281
48.41536	231.77157
48.43236	271.83122
48.44936	262.97695
48.46636	244.29373
48.48336	238.33519
48.50036	280.28866
48.51736	343.50827
48.53436	399.63588
48.55136	430.15824
48.56836	560.42178
48.58536	581.27868
48.60236	505.31338
48.61936	429.8712
48.63636	298.28782
48.65336	252.73595
48.67036	261.64303
48.68736	274.78322
48.70436	305.48813
48.72136	299.48952
48.73836	251.20511
48.75536	171.65152
48.77236	130.82322
48.78936	104.48517
48.80636	70.41831
48.82336	69.51986
48.84036	52.64302
48.85736	33.07114
48.87436	50.63401
48.89136	49.78029
48.90836	52.84451
48.92536	61.82127
48.94236	44.31797
48.95936	48.91915
48.97636	50.55722
48.99336	57.43625
49.01036	35.95222
49.02736	35.91728
49.04436	30.68259
49.06136	40.69728
49.07836	43.1012
49.09536	13.83538
49.11236	41.8464
49.12936	32.95559
49.14636	39.04274
49.16336	47.62145
49.18036	64.63097
49.19736	59.42243
49.21436	45.7519
49.23136	46.53424
49.24836	62.91309
49.26536	41.25922
49.28236	49.57032
49.29936	34.74908
49.31636	47.66871
49.33336	85.96355
49.35036	70.76652
49.36736	73.34095
49.38436	85.42764
49.40136	119.62854
49.41836	115.78142
49.43536	211.25771
49.45236	290.31077
49.46936	295.15235
49.48636	313.53263
49.50336	245.13998
49.52036	158.70142
49.53736	157.63211
49.55436	158.28245
49.57136	149.89094
49.58836	163.5137
49.60536	157.0298
49.62236	149.92312
49.63936	128.1188
49.65636	88.63529
49.67336	73.22175
49.69036	69.82871
49.70736	42.42874
49.72436	23.37305
49.74136	24.88029
49.75836	47.25937
49.77536	48.70829
49.79236	45.15704
49.80936	31.81318
49.82636	30.11578
49.84336	35.55676
49.86036	52.42664
49.87736	57.47782
49.89436	27.31125
49.91136	32.13748
49.92836	30.65009
49.94536	12.96221
49.96236	37.60667
49.97936	46.0011
49.99636	32.84536
50.01336	58.68159
50.03036	30.53179
50.04736	26.04282
50.06436	19.16032
50.08136	35.05596
50.09836	27.28213
50.11536	0.29608
50.13236	50.29138
50.14936	28.18659
50.16636	52.04035
50.18336	12.96674
50.20036	12.27348
50.21736	23.87083
50.23436	31.28439
50.25136	50.11305
50.26836	53.55139
50.28536	20.67404
50.30236	31.09376
50.31936	48.49133
50.33636	26.06396
50.35336	32.85061
50.37036	28.62549
50.38736	64.73901
50.40436	49.90502
50.42136	44.52019
50.43836	36.73463
50.45536	36.16237
50.47236	67.14224
50.48936	36.03092
50.50636	31.72767
50.52336	42.36108
50.54036	56.35234
50.55736	46.43106
50.57436	50.77821
50.59136	27.00847
50.60836	44.30081
50.62536	46.64682
50.64236	33.15408
50.65936	39.10238
50.67636	43.17012
50.69336	52.76255
50.71036	55.01827
50.72736	66.67364
50.74436	94.39469
50.76136	83.69805
50.77836	79.24701
50.79536	105.44625
50.81236	100.32933
50.82936	72.26304
50.84636	52.49658
50.86336	66.0433
50.88036	89.7483
50.89736	91.72764
50.91436	86.27218
50.93136	101.85716
50.94836	146.09265
50.96536	167.42591
50.98236	179.57635
50.99936	210.00827
51.01636	254.1614
51.03336	352.58019
51.05036	432.86773
51.06736	579.54145
51.08436	738.97236
51.10136	855.50671
51.11836	917.06328
51.13536	840.57963
51.15236	695.6716
51.16936	516.83339
51.18636	485.68171
51.20336	503.36285
51.22036	567.89381
51.23736	645.78922
51.25436	664.40998
51.27136	700.03191
51.28836	665.30115
51.30536	726.55522
51.32236	766.30272
51.33936	724.21356
51.35636	595.54119
51.37336	461.11564
51.39036	338.74875
51.40736	342.93576
51.42436	292.04251
51.44136	345.58902
51.45836	386.98482
51.47536	353.7391
51.49236	316.53398
51.50936	218.6193
51.52636	147.69382
51.54336	119.15844
51.56036	100.91641
51.57736	76.3475
51.59436	83.10242
51.61136	68.29291
51.62836	45.3367
51.64536	54.05918
51.66236	52.83827
51.67936	51.80176
51.69636	72.9037
51.71336	70.91967
51.73036	88.32766
51.74736	113.28512
51.76436	127.74946
51.78136	159.72512
51.79836	198.28485
51.81536	241.58356
51.83236	280.01945
51.84936	341.23103
51.86636	399.4257
51.88336	366.76436
51.90036	292.86731
51.91736	260.74945
51.93436	184.69603
51.95136	144.40115
51.96836	184.68283
51.98536	205.86205
52.00236	209.69829
52.01936	205.79507
52.03636	160.19463
52.05336	100.80415
52.07036	86.12888
52.08736	72.79925
52.10436	49.80754
52.12136	52.55669
52.13836	37.33691
52.15536	46.35009
52.17236	18.64649
52.18936	73.14153
52.20636	35.02032
52.22336	47.13384
52.24036	27.46821
52.25736	11.22291
52.27436	0
52.29136	48.1858
52.30836	42.21846
52.32536	35.44587
52.34236	14.31371
52.35936	38.35106
52.37636	41.34006
52.39336	32.20558
52.41036	32.77997
52.42736	27.78923
52.44436	28.04147
52.46136	21.94808
52.47836	35.0762
52.49536	14.88401
52.51236	25.94781
52.52936	29.64074
52.54636	23.8523
52.56336	28.27724
52.58036	13.40992
52.59736	41.37977
52.61436	31.37613
52.63136	22.58842
52.64836	35.42118
52.66536	21.85254
52.68236	17.3945
52.69936	12.79931
52.71636	18.26769
52.73336	33.88341
52.75036	15.04089
52.76736	12.44692
52.78436	12.6612
52.80136	23.68618
52.81836	30.57294
52.83536	42.95278
52.85236	57.83955
52.86936	51.40227
52.88636	37.73778
52.90336	29.30197
52.92036	37.39458
52.93736	46.37313
52.95436	42.42617
52.97136	29.17669
52.98836	26.10678
53.00536	26.4193
53.02236	25.69727
53.03936	28.79641
53.05636	25.49641
53.07336	38.20071
53.09036	45.0748
53.10736	68.67753
53.12436	55.78698
53.14136	64.02162
53.15836	61.32818
53.17536	111.33705
53.19236	105.50598
53.20936	76.77918
53.22636	132.29216
53.24336	66.26604
53.26036	57.75713
53.27736	36.77133
53.29436	25.82618
53.31136	70.62193
53.32836	75.80452
53.34536	37.50998
53.36236	69.68783
53.37936	55.33945
53.39636	48.41431
53.41336	38.6746
53.43036	75.50889
53.44736	89.32736
53.46436	73.76045
53.48136	66.46042
53.49836	99.58542
53.51536	107.88109
53.53236	112.45048
53.54936	141.24523
53.56636	152.45304
53.58336	174.99366
53.60036	252.88467
53.61736	338.42723
53.63436	398.33894
53.65136	479.09284
53.66836	493.30892
53.68536	430.62222
53.70236	358.71705
53.71936	291.32773
53.73636	242.59261
53.75336	251.15162
53.77036	284.79176
53.78736	344.05955
53.80436	369.49333
53.82136	346.8646
53.83836	339.57623
53.85536	354.05186
53.87236	395.75042
53.88936	427.52153
53.90636	530.79067
53.92336	674.69497
53.94036	719.89309
53.95736	672.34761
53.97436	591.60523
53.99136	475.15049
54.00836	459.45968
54.02536	455.31546
54.04236	522.46737
54.05936	584.13087
54.07636	677.42376
54.09336	678.57087
54.11036	535.1189
54.12736	420.21181
54.14436	282.44579
54.16136	221.89879
54.17836	231.81733
54.19536	233.30192
54.21236	250.34152
54.22936	217.48418
54.24636	167.10367
54.26336	180.14693
54.28036	134.76267
54.29736	109.56195
54.31436	102.76233
54.33136	58.53131
54.34836	49.08722
54.36536	51.58695
54.38236	56.25466
54.39936	44.66841
54.41636	60.11848
54.43336	20.85298
54.45036	41.42077
54.46736	34.13435
54.48436	29.9516
54.50136	26.80637
54.51836	26.39662
54.53536	36.3659
54.55236	36.66432
54.56936	31.95008
54.58636	24.38845
54.60336	22.55742
54.62036	57.63094
54.63736	69.0361
54.65436	49.54589
54.67136	39.80919
54.68836	28.67232
54.70536	20.43206
54.72236	33.36274
54.73936	34.50129
54.75636	36.49627
54.77336	37.40933
54.79036	45.7224
54.80736	51.19999
54.82436	66.98664
54.84136	35.68965
54.85836	29.15472
54.87536	53.6481
54.89236	25.86684
54.90936	27.29266
54.92636	38.68942
54.94336	21.78723
54.96036	46.69479
54.97736	36.28437
54.99436	-0.44567
55.01136	10.38701
55.02836	46.31592
55.04536	26.52717
55.06236	45.2504
55.07936	19.8307
55.09636	9.72741
55.11336	24.68824
55.13036	31.77314
55.14736	7.49196
55.16436	26.6553
55.18136	62.88213
55.19836	71.29041
55.21536	27.45395
55.23236	24.5864
55.24936	23.77031
55.26636	10.54277
55.28336	35.86482
55.30036	52.89947
55.31736	24.91587
55.33436	57.17092
55.35136	40.87147
55.36836	46.38048
55.38536	51829
55.40236	53.8711
55.41936	60.05518
55.43636	35917
55.45336	36.44527
55.47036	38.32589
55.48736	59.25677
55.50436	81.27876
55.52136	69.18043
55.53836	47.62076
55.55536	60.78671
55.57236	60.42634
55.58936	88.8904
55.60636	121.58114
55.62336	144.47014
55.64036	159.34074
55.65736	193.47845
55.67436	231.27902
55.69136	229.41144
55.70836	197.49578
55.72536	170.30253
55.74236	136.6385
55.75936	127.67211
55.77636	131.73386
55.79336	144.53529
55.81036	137.19942
55.82736	156.8909
55.84436	152.98253
55.86136	125.24124
55.87836	114.46695
55.89536	94.80538
55.91236	88.84392
55.92936	132.75156
55.94636	103.22729
55.96336	109.12142
55.98036	137.81661
55.99736	172.28121
56.01436	180.47112
56.03136	255.68853
56.04836	351.35093
56.06536	381.70941
56.08236	498.63708
56.09936	451.40335
56.11636	418.12911
56.13336	355.25103
56.15036	221.26763
56.16736	234.23748
56.18436	211.39784
56.20136	194.08825
56.21836	258.72552
56.23536	262.55449
56.25236	290.31802
56.26936	253.96471
56.28636	192.97354
56.30336	165.19725
56.32036	138.4895
56.33736	132.8789
56.35436	117.81486
56.37136	111.66862
56.38836	142.25165
56.40536	122.5462
56.42236	148.81126
56.43936	126.34926
56.45636	146.96067
56.47336	196.08972
56.49036	214.74723
56.50736	269.88252
56.52436	350.24478
56.54136	428.82145
56.55836	563.75374
56.57536	756.3606
56.59236	940.43592
56.60936	1179.15113
56.62636	1348.52984
56.64336	1397.3653
56.66036	1227.84671
56.67736	910.81945
56.69436	694.48043
56.71136	593.1893
56.72836	562.2226
56.74536	592.27274
56.76236	717.18533
56.77936	828.34213
56.79636	812.20643
56.81336	670.29849
56.83036	462.80513
56.84736	343.02994
56.86436	252.32569
56.88136	197.38316
56.89836	155.26664
56.91536	115.81651
56.93236	100.45727
56.94936	62.62965
56.96636	82.33964
56.98336	88.97642
57.00036	76.33947
57.01736	57.74128
57.03436	65.4384
57.05136	80.37613
57.06836	43.26835
57.08536	42.89943
57.10236	56.42492
57.11936	48.75068
57.13636	15.33527
57.15336	48.16997
57.17036	23.51736
57.18736	18.88526
57.20436	69.18453
57.22136	100.39046
57.23836	64381
57.25536	83.57273
57.27236	87.86682
57.28936	71.56849
57.30636	67.82511
57.32336	27.15266
57.34036	38.52733
57.35736	48.68532
57.37436	62.53212
57.39136	52.88841
57.40836	58.55661
57.42536	32.94811
57.44236	40.37802
57.45936	52.46672
57.47636	52.44851
57.49336	39.5655
57.51036	36.37048
57.52736	32.10979
57.54436	47.2484
57.56136	61.38877
57.57836	40.85542
57.59536	26.58189
57.61236	61.09235
57.62936	70.33957
57.64636	63.50629
57.66336	73.24285
57.68036	95.86734
57.69736	94.6059
57.71436	91.77331
57.73136	113.89885
57.74836	159.46412
57.76536	188.5253
57.78236	210.97542
57.79936	261.62143
57.81636	222.7717
57.83336	197.06405
57.85036	170.7099
57.86736	136.23283
57.88436	126.03611
57.90136	101.55088
57.91836	128.96933
57.93536	125.57848
57.95236	107.33746
57.96936	135.00518
57.98636	110.95097
58.00336	92.17747
58.02036	67.40033
58.03736	49.02128
58.05436	42.67178
58.07136	80.13474
58.08836	52.29817
58.10536	60.95087
58.12236	75.13679
58.13936	38.82732
58.15636	37.39597
58.17336	15.5336
58.19036	44.69674
58.20736	23.49803
58.22436	47.00737
58.24136	28.05218
58.25836	52.72874
58.27536	20.15879
58.29236	35.03031
58.30936	80.91379
58.32636	79.02612
58.34336	57.1915
58.36036	76.62463
58.37736	117.01536
58.39436	107.61619
58.41136	110.71306
58.42836	96.73004
58.44536	76.95505
58.46236	64.27793
58.47936	50.80833
58.49636	32.79916
58.51336	31.61992
58.53036	42.10028
58.54736	69.01036
58.56436	58.38722
58.58136	46.81382
58.59836	58.00064
58.61536	59.07962
58.63236	47.56921
58.64936	45.58651
58.66636	46.94737
58.68336	42.06455
58.70036	23.0444
58.71736	40.61251
58.73436	62.39099
58.75136	54.85326
58.76836	66.20166
58.78536	56.73801
58.80236	68.93942
58.81936	67.36179
58.83636	79.64659
58.85336	86.77344
58.87036	60.81869
58.88736	48.62046
58.90436	67.72338
58.92136	55.66263
58.93836	53.25543
58.95536	51.44583
58.97236	58.53412
58.98936	56.62567
59.00636	48.25787
59.02336	45.40943
59.04036	58.88577
59.05736	14.05306
59.07436	37.74387
59.09136	74.03576
59.10836	82.38314
59.12536	77.63793
59.14236	105.9443
59.15936	128.48209
59.17636	154.4026
59.19336	188.42214
59.21036	211.04227
59.22736	209.47426
59.24436	184.36685
59.26136	165.45651
59.27836	125.98848
59.29536	108.45494
59.31236	87.33677
59.32936	97.42092
59.34636	78.94243
59.36336	65.29013
59.38036	101.23013
59.39736	107.68186
59.41436	91.10811
59.43136	82.19854
59.44836	40.86709
59.46536	32.17639
59.48236	53.44346
59.49936	48.15943
59.51636	33.41444
59.53336	47.65342
59.55036	42.37444
59.56736	33.10399
59.58436	35.72418
59.60136	31.73872
59.61836	32.49544
59.63536	43.04157
59.65236	53.21942
59.66936	54.16157
59.68636	32.75348
59.70336	32.55808
59.72036	48.84964
59.73736	56.13052
59.75436	34.64621
59.77136	34.64379
59.78836	37.99793
59.80536	44.63982
59.82236	41.44981
59.83936	37.10971
59.85636	25.55613
59.87336	29.99416
59.89036	41.25419
59.90736	18.56796
59.92436	-2.62079
59.94136	39.29043
59.95836	49.88151
59.97536	70.71561
59.99236	64.54599
60.00936	28.41872
60.02636	22.49936
60.04336	54.85853
60.06036	38.56116
60.07736	32.71895
60.09436	28.68204
60.11136	20.69579
60.12836	15.88058
60.14536	25.4653
60.16236	15.26886
60.17936	23.60884
60.19636	32.27141
60.21336	25.99836
60.23036	45.51433
60.24736	61.47485
60.26436	49843
60.28136	50.93048
60.29836	62.46112
60.31536	31.40699
60.33236	15.34335
60.34936	34.37771
60.36636	46.57704
60.38336	23.05202
60.40036	10.47414
60.41736	22.77739
60.43436	29.49852
60.45136	19.15057
60.46836	34.48941
60.48536	38.39537
60.50236	13.73204
60.51936	15.34402
60.53636	19.84611
60.55336	14.27344
60.57036	29.99442
60.58736	61.48766
60.60436	60.77748
60.62136	53.58664
60.63836	60.11264
60.65536	59.65764
60.67236	63.11318
60.68936	78.65474
60.70636	91.52524
60.72336	101.23329
60.74036	130.42917
60.75736	127.99596
60.77436	127.44645
60.79136	95.01126
60.80836	71.4875
60.82536	83.05789
60.84236	85.72021
60.85936	98.37496
60.87636	98.1734
60.89336	78.68335
60.91036	89.32672
60.92736	107.89886
60.94436	89.17098
60.96136	95.49685
60.97836	72.65662
60.99536	80.05147
61.01236	74.0789
61.02936	110.63968
61.04636	105.94242
61.06336	136.44723
61.08036	162.19887
61.09736	170.7198
61.11436	205.52589
61.13136	248.99934
61.14836	222.16367
61.16536	185.60904
61.18236	137.03216
61.19936	117.60975
61.21636	139.57806
61.23336	146.26454
61.25036	171.82168
61.26736	173.74189
61.28436	177.11124
61.30136	195.87646
61.31836	172.71838
61.33536	208.9477
61.35236	195.35716
61.36936	274.87695
61.38636	301.35225
61.40336	374.80709
61.42036	462.6136
61.43736	515.95038
61.45436	507.4744
61.47136	453.52889
61.48836	381.07046
61.50536	317.89668
61.52236	306.20148
61.53936	309.44437
61.55636	354.36364
61.57336	440.88726
61.59036	506.25454
61.60736	597.99659
61.62436	651.94971
61.64136	681.8328
61.65836	662.10028
61.67536	615.14053
61.69236	603.34918
61.70936	579.75903
61.72636	479.89085
61.74336	394.9946
61.76036	355.6039
61.77736	326.20823
61.79436	317.59783
61.81136	304.62606
61.82836	335.34513
61.84536	318.96207
61.86236	295.12662
61.87936	323.48747
61.89636	252.54655
61.91336	222.49277
61.93036	172.81048
61.94736	137.48198
61.96436	138.57785
61.98136	88.22045
61.99836	122.67978
62.01536	102.27884
62.03236	134.74696
62.04936	133.74821
62.06636	172.08202
62.08336	219.79139
62.10036	224.02179
62.11736	232.07447
62.13436	209.94809
62.15136	220.89906
62.16836	137.73939
62.18536	123.20732
62.20236	125.10621
62.21936	135.70239
62.23636	120.19967
62.25336	123.79219
62.27036	123.61382
62.28736	135.58561
62.30436	132.37395
62.32136	128.93825
62.33836	105.63416
62.35536	86.74571
62.37236	80.10293
62.38936	80.68762
62.40636	66.37295
62.42336	89.5831
62.44036	90.33866
62.45736	71.42736
62.47436	90.41325
62.49136	89.03904
62.50836	95.96983
62.52536	87.60284
62.54236	73.87198
62.55936	77.04868
62.57636	87.33106
62.59336	77.90397
62.61036	71.32267
62.62736	69.38033
62.64436	92.08285
62.66136	96.10243
62.67836	99.3792
62.69536	116.15942
62.71236	126.13894
62.72936	112.35074
62.74636	135.90753
62.76336	114.21377
62.78036	87.01605
62.79736	66.01371
62.81436	67.97964
62.83136	70.86648
62.84836	47.58215
62.86536	72.83662
62.88236	59.12454
62.89936	111.43777
62.91636	88.46528
62.93336	74.50256
62.95036	61.88847
62.96736	66.72224
62.98436	74.82986
63.00136	46.61301
63.01836	32.26994
63.03536	47.20271
63.05236	36.9323
63.06936	51.7289
63.08636	14.71033
63.10336	52.79792
63.12036	46.51837
63.13736	22.29198
63.15436	48.58552
63.17136	29.06348
63.18836	2.46004
63.20536	8.77566
63.22236	41.95172
63.23936	45.07353
63.25636	45.49139
63.27336	43.8401
63.29036	62.78655
63.30736	46.11472
63.32436	60.5873
63.34136	20.91071
63.35836	44.92621
63.37536	42.39452
63.39236	25.87989
63.40936	15.6862
63.42636	21.77937
63.44336	27.45123
63.46036	34.05754
63.47736	41.12088
63.49436	52.38091
63.51136	58.66559
63.52836	35.25647
63.54536	21.4639
63.56236	39.41276
63.57936	41.33843
63.59636	34.16725
63.61336	36.7571
63.63036	45.02168
63.64736	40.72964
63.66436	27.78615
63.68136	49.86892
63.69836	45.23753
63.71536	17.67407
63.73236	31.91345
63.74936	33.6208
63.76636	11.21707
63.78336	10.34395
63.80036	27.77569
63.81736	10.78945
63.83436	15.70386
63.85136	35.82014
63.86836	39.31999
63.88536	27.55134
63.90236	7.4316
63.91936	14.74867
63.93636	25.25749
63.95336	60.74287
63.97036	50.77299
63.98736	33.71165
64.00436	65.10903
64.02136	38.61657
64.03836	41.78655
64.05536	48.88413
64.07236	45.06472
64.08936	48.48843
64.10636	34.88673
64.12336	31.63059
64.14036	36.52216
64.15736	29.65131
64.17436	33.90831
64.19136	47.61971
64.20836	62.6782
64.22536	45.09616
64.24236	53.74601
64.25936	43.01973
64.27636	42.29946
64.29336	25.36702
64.31036	32.33372
64.32736	37.33475
64.34436	30.10543
64.36136	23.79685
64.37836	28.23563
64.39536	32.55073
64.41236	35.26271
64.42936	31.57374
64.44636	13.54011
64.46336	26.72182
64.48036	39.2771
64.49736	34.09058
64.51436	4.92692
64.53136	0
64.54836	31.02559
64.56536	40.12586
64.58236	26.63064
64.59936	33.87872
64.61636	58.4551
64.63336	67.78403
64.65036	56.79236
64.66736	46.62137
64.68436	52.47744
64.70136	65.33313
64.71836	78.54437
64.73536	68.77793
64.75236	81.95684
64.76936	98.44723
64.78636	133.08498
64.80336	158.19298
64.82036	213.51122
64.83736	211.62438
64.85436	208.42743
64.87136	201.08619
64.88836	155.29027
64.90536	144.96286
64.92236	121.51168
64.93936	86.01284
64.95636	81.60905
64.97336	119.04379
64.99036	137.74599
65.00736	130.70796
65.02436	165.12692
65.04136	132.20064
65.05836	95.61441
65.07536	63.4825
65.09236	85.59015
65.10936	56.79161
65.12636	61.58359
65.14336	65.26912
65.16036	76.65071
65.17736	50.33754
65.19436	42.87764
65.21136	38.57058
65.22836	51.93459
65.24536	48.01961
65.26236	59.39105
65.27936	68.80057
65.29636	42.53215
65.31336	41.04485
65.33036	60.22567
65.34736	54.81384
65.36436	53.17554
65.38136	45.31271
65.39836	46.59144
65.41536	53.79086
65.43236	64.06202
65.44936	64.80077
65.46636	78.61494
65.48336	72.74589
65.50036	108.53117
65.51736	134.37463
65.53436	131.29218
65.55136	156.15117
65.56836	148.04717
65.58536	127.55379
65.60236	119.4022
65.61936	106.49277
65.63636	79.18682
65.65336	67.24027
65.67036	88.01177
65.68736	87.66967
65.70436	80.57935
65.72136	97.3881
65.73836	101.33647
65.75536	119.69113
65.77236	78.87348
65.78936	78.99235
65.80636	68.16568
65.82336	52.61912
65.84036	87.52419
65.85736	63.19319
65.87436	75.59353
65.89136	51.78816
65.90836	59.33096
65.92536	50.80475
65.94236	83.90554
65.95936	72.63677
65.97636	61.19447
65.99336	46.09169
66.01036	63.55895
66.02736	90.97868
66.04436	121.80749
66.06136	125.60601
66.07836	105.83112
66.09536	155.96858
66.11236	173.53627
66.12936	198.50384
66.14636	262.89045
66.16336	347.07997
66.18036	452.56162
66.19736	545.75911
66.21436	615.10002
66.23136	669.62601
66.24836	626.73145
66.26536	499.33141
66.28236	382.22505
66.29936	320.75433
66.31636	283.27615
66.33336	263.80603
66.35036	259.39443
66.36736	260.16403
66.38436	301.44007
66.40136	370.64734
66.41836	390.17661
66.43536	345.22701
66.45236	306.58787
66.46936	275.44735
66.48636	199.92416
66.50336	157.76525
66.52036	163.85194
66.53736	135.15078
66.55436	109.99797
66.57136	104.95
66.58836	83.59826
66.60536	70.44236
66.62236	69.83359
66.63936	75.8886
66.65636	80.49007
66.67336	71.85617
66.69036	68.53244
66.70736	90.86805
66.72436	96.55037
66.74136	78.21966
66.75836	79.63581
66.77536	90.56482
66.79236	80.49559
66.80936	91.54733
66.82636	136.95251
66.84336	184.6267
66.86036	231.4081
66.87736	238.0189
66.89436	156.96534
66.91136	179.67401
66.92836	152.45026
66.94536	100.01904
66.96236	76.79914
66.97936	121.85483
66.99636	81.16817
67.01336	94.04986
67.03036	105.49574
67.04736	93.49693
67.06436	128.77164
67.08136	152.74756
67.09836	102.81069
67.11536	74.71653
67.13236	78.05634
67.14936	102.06205
67.16636	75.94876
67.18336	55.6479
67.20036	68.9354
67.21736	56.5962
67.23436	63.43263
67.25136	48.16384
67.26836	36.3353
67.28536	45.88083
67.30236	69.06189
67.31936	92.99372
67.33636	79.72729
67.35336	67.28342
67.37036	82.40136
67.38736	96.90396
67.40436	156.78197
67.42136	165.60789
67.43836	183.30596
67.45536	211.02496
67.47236	225.8906
67.48936	237.57536
67.50636	218.6603
67.52336	176.43011
67.54036	133.44305
67.55736	119.04839
67.57436	104.92923
67.59136	124.40398
67.60836	123.4927
67.62536	108.53006
67.64236	130194
67.65936	156.43272
67.67636	141.4601
67.69336	115.21724
67.71036	103.32452
67.72736	92.50443
67.74436	78.77486
67.76136	66.83473
67.77836	59.57625
67.79536	72.00332
67.81236	49.75359
67.82936	56.88237
67.84636	32.65563
67.86336	34.37095
67.88036	50.40506
67.89736	29.46829
67.91436	68.9276
67.93136	71.24534
67.94836	47.13235
67.96536	19.72895
67.98236	64.98041
67.99936	90.40828
68.01636	110.80221
68.03336	131.57992
68.05036	120.70364
68.06736	115.57909
68.08436	115.07036
68.10136	64.80852
68.11836	91.96641
68.13536	79.86755
68.15236	54.22881
68.16936	71.4936
68.18636	76.36004
68.20336	60.69687
68.22036	34.15586
68.23736	62.12461
68.25436	78.84396
68.27136	55.5718
68.28836	47.67486
68.30536	64.60725
68.32236	77.9936
68.33936	65.53784
68.35636	63.69199
68.37336	62.59034
68.39036	77.78716
68.40736	79.37625
68.42436	92.56451
68.44136	105.61535
68.45836	108.6512
68.47536	62.3855
68.49236	58.81982
68.50936	74.01169
68.52636	71.82021
68.54336	96.50063
68.56036	92.51223
68.57736	90.50552
68.59436	118.21773
68.61136	148.72269
68.62836	171.39321
68.64536	162.21482
68.66236	166.30104
68.67936	158.91681
68.69636	156476
68.71336	157.57471
68.73036	137.89143
68.74736	112.20265
68.76436	116.81876
68.78136	133.26347
68.79836	102.65638
68.81536	120.78217
68.83236	73.86906
68.84936	90.9146
68.86636	106.08618
68.88336	103.79285
68.90036	70.90172
68.91736	46.6427
68.93436	64.6782
68.95136	58.51949
68.96836	63.36623
68.98536	59.39215
69.00236	61.67715
69.01936	71.83655
69.03636	79.15961
69.05336	49.39207
69.07036	48.76258
69.08736	30.74465
69.10436	0
69.12136	19.66335
69.13836	26.97098
69.15536	6.49136
69.17236	43.91476
69.18936	29.92726
69.20636	25.0308
69.22336	29.9984
69.24036	24.18525
69.25736	26.46629
69.27436	32.50775
69.29136	29.12908
69.30836	35.43697
69.32536	25.81608
69.34236	17.63526
69.35936	28.64417
69.37636	33.85515
69.39336	44.74353
69.41036	28.31609
69.42736	8.8806
69.44436	18.7038
69.46136	24.35597
69.47836	18.68392
69.49536	11.41772
69.51236	30.04283
69.52936	30.78112
69.54636	18.50727
69.56336	32.16837
69.58036	30.7554
69.59736	21.70034
69.61436	33.71597
69.63136	39.53274
69.64836	40.51752
69.66536	38.24473
69.68236	18.1793
69.69936	16.86978
69.71636	21.14829
69.73336	24.13361
69.75036	45.36234
69.76736	45.81
69.78436	52.88377
69.80136	41.01937
69.81836	53.99471
69.83536	41.45387
69.85236	11.53761
69.86936	38.44017
69.88636	23.51032
69.90336	33.52494
69.92036	41.80188
69.93736	38.07462
69.95436	45.94371
69.97136	50.60754
69.98836	35.14154
70.00536	17.21273
70.02236	27.13732
70.03936	44.52259
70.05636	23.06291
70.07336	29.54038
70.09036	46.2126
70.10736	51.41354
70.12436	27.24768
70.14136	53.39353
70.15836	12.08061
70.17536	40.44799
70.19236	13.73747
70.20936	1.07111
70.22636	24.33743
70.24336	20.10875
70.26036	34.77503
70.27736	16.95157
70.29436	31.49396
70.31136	24.7398
70.32836	7.94162
70.34536	25.44246
70.36236	34.6128
70.37936	37.7899
70.39636	5.51308
70.41336	28.76514
70.43036	68.76444
70.44736	84.5293
70.46436	86.31348
70.48136	78.58989
70.49836	97.50213
70.51536	128.30097
70.53236	141.79511
70.54936	146.42857
70.56636	148.79136
70.58336	118.1298
70.60036	94.49962
70.61736	85.2776
70.63436	71.90581
70.65136	91.31654
70.66836	86.62351
70.68536	101.15414
70.70236	116.38229
70.71936	139.17607
70.73636	153.62935
70.75336	167.1906
70.77036	205.43161
70.78736	241.48388
70.80436	276.0048
70.82136	325.51432
70.83836	366.54144
70.85536	364.0018
70.87236	329.74238
70.88936	266.43166
70.90636	237.07799
70.92336	170.13103
70.94036	192.10124
70.95736	199.51393
70.97436	225.02807
70.99136	255.44286
71.00836	302.75797
71.02536	344.48885
71.04236	380.98306
71.05936	364.26939
71.07636	340.36749
71.09336	288.41981
71.11036	238.75236
71.12736	200.80001
71.14436	161.10707
71.16136	113.17296
71.17836	108.35218
71.19536	125.03307
71.21236	156.36733
71.22936	162.28489
71.24636	143.65417
71.26336	129.72409
71.28036	134.16536
71.29736	103.55323
71.31436	98.80357
71.33136	68.75302
71.34836	71.06159
71.36536	65.59266
71.38236	63.83486
71.39936	49.37347
71.41636	46.51626
71.43336	46.59858
71.45036	39.60818
71.46736	49.70888
71.48436	45.17745
71.50136	53.21686
71.51836	31.41722
71.53536	15.25742
71.55236	40.67595
71.56936	47.48639
71.58636	51.14681
71.60336	36.22429
71.62036	38.52171
71.63736	46.19952
71.65436	19.61409
71.67136	39045
71.68836	30.84773
71.70536	25.86952
71.72236	27.61768
71.73936	38.54713
71.75636	18.42714
71.77336	42.69713
71.79036	49.48981
71.80736	25.82808
71.82436	31.63438
71.84136	50.92404
71.85836	40.32768
71.87536	49.90604
71.89236	31.92438
71.90936	7.59233
71.92636	8.27664
71.94336	19.24613
71.96036	23.60227
71.97736	35.57257
71.99436	29.13996
72.01136	43.43644
72.02836	40.12623
72.04536	44.72674
72.06236	3.12131
72.07936	7.70889
72.09636	19.44694
72.11336	25.05115
72.13036	31.00225
72.14736	31.19455
72.16436	38.27979
72.18136	37.26842
72.19836	28.12848
72.21536	25.63257
72.23236	6.44862
72.24936	12.95082
72.26636	34.99589
72.28336	25.59558
72.30036	14.30624
72.31736	43.14959
72.33436	44.36882
72.35136	23.25159
72.36836	37.83715
72.38536	52.24509
72.40236	48.80454
72.41936	51.29551
72.43636	63.2593
72.45336	59.57344
72.47036	67.16999
72.48736	92.80255
72.50436	78.05271
72.52136	98.2442
72.53836	116.44281
72.55536	157.55537
72.57236	192.27727
72.58936	217.30841
72.60636	229.34711
72.62336	197.69416
72.64036	167.6318
72.65736	150.89689
72.67436	116.69995
72.69136	126.78671
72.70836	100.18469
72.72536	93.73168
72.74236	100.70404
72.75936	100.26242
72.77636	112.92771
72.79336	122.80503
72.81036	154.47312
72.82736	146.6537
72.84436	105.31052
72.86136	115.93593
72.87836	103.85986
72.89536	90.56873
72.91236	84.40055
72.92936	89.56507
72.94636	100.35751
72.96336	103.98812
72.98036	119.53042
72.99736	140.73734
73.01436	58.42032
73.03136	46.28407
73.04836	50.86495
73.06536	62.60538
73.08236	58.64787
73.09936	49.95054
73.11636	70.28317
73.13336	67.35314
73.15036	68.70947
73.16736	56.23054
73.18436	60.45224
73.20136	65.14819
73.21836	76.08377
73.23536	80.18223
73.25236	114.26457
73.26936	119.75149
73.28636	127.12414
73.30336	139.98582
73.32036	131.08392
73.33736	117.73409
73.35436	106.82919
73.37136	104.89041
73.38836	74.46421
73.40536	37.24813
73.42236	33.24815
73.43936	43.55886
73.45636	38.40172
73.47336	43.71104
73.49036	39.03074
73.50736	68.56563
73.52436	92.34281
73.54136	100.95055
73.55836	93.23437
73.57536	81.32681
73.59236	61.25716
73.60936	40.76519
73.62636	33.37504
73.64336	12.26224
73.66036	29.21789
73.67736	30.09836
73.69436	22.69521
73.71136	52.35729
73.72836	34.08869
73.74536	39.34807
73.76236	26.23824
73.77936	19.53387
73.79636	-10.06125
73.81336	30.20037
73.83036	28.13532
73.84736	17.17963
73.86436	17.61559
73.88136	13.60807
73.89836	29.26699
73.91536	3.25416
73.93236	34.76674
73.94936	63.5464
73.96636	37.10056
73.98336	51.17903
74.00036	86.18148
74.01736	61.74376
74.03436	55.91907
74.05136	68.14097
74.06836	47.84055
74.08536	58.81191
74.10236	30.27739
74.11936	32.14652
74.13636	44.58015
74.15336	37.59076
74.17036	19.86119
74.18736	50.33831
74.20436	60.87198
74.22136	48.56985
74.23836	45.40532
74.25536	42.85475
74.27236	49.88031
74.28936	43.13178
74.30636	23.30042
74.32336	41.07134
74.34036	53.65526
74.35736	38.7281
74.37436	24.19663
74.39136	17.00917
74.40836	22.47597
74.42536	36.98048
74.44236	24.40136
74.45936	23.05304
74.47636	31.0537
74.49336	32.63452
74.51036	27.17321
74.52736	14.62022
74.54436	23.95549
74.56136	37.05868
74.57836	56.64822
74.59536	57.32496
74.61236	58.38724
74.62936	55.8884
74.64636	63.04186
74.66336	60.00973
74.68036	56.03708
74.69736	78.36914
74.71436	78.2856
74.73136	57.5713
74.74836	66.4015
74.76536	69.00568
74.78236	51.80905
74.79936	63.85224
74.81636	77.16104
74.83336	105.66636
74.85036	92.13579
74.86736	117.55415
74.88436	125.95891
74.90136	153.69667
74.91836	158.38311
74.93536	179.46802
74.95236	231.75722
74.96936	323.33178
74.98636	401.21198
75.00336	516.2298
75.02036	611.83414
75.03736	581.22737
75.05436	512.79417
75.07136	446.78212
75.08836	331.34768
75.10536	259.05444
75.12236	201.17774
75.13936	187.40973
75.15636	191.80953
75.17336	222.69055
75.19036	233.58806
75.20736	282.69083
75.22436	328.44348
75.24136	353.61778
75.25836	351.36362
75.27536	329.72629
75.29236	276.03784
75.30936	207.36872
75.32636	194.90368
75.34336	188.00548
75.36036	202.47584
75.37736	211.7253
75.39436	226.06293
75.41136	266.42732
75.42836	339.93584
75.44536	441.60002
75.46236	506.5165
75.47936	609.67968
75.49636	690.10846
75.51336	663.9187
75.53036	573.02851
75.54736	471.93912
75.56436	343.39166
75.58136	257.31869
75.59836	274.48071
75.61536	216.67007
75.63236	206.06301
75.64936	186.78917
75.66636	248.27763
75.68336	267.81577
75.70036	387.78815
75.71736	388.94944
75.73436	335.45366
75.75136	306.84471
75.76836	235.98049
75.78536	195.76135
75.80236	138.30425
75.81936	108.07476
75.83636	71.69581
75.85336	79.82096
75.87036	57.87053
75.88736	63.08648
75.90436	42.37251
75.92136	35.03287
75.93836	15.73328
75.95536	50.16528
75.97236	42.13027
75.98936	66.97405
76.00636	42.53509
76.02336	32.25209
76.04036	56.01102
76.05736	45.57382
76.07436	29.06423
76.09136	50.73087
76.10836	56.22979
76.12536	36.79389
76.14236	32.38368
76.15936	25.64998
76.17636	32.97366
76.19336	33.62475
76.21036	27.47239
76.22736	2.39476
76.24436	14.12558
76.26136	44.98791
76.27836	35816
76.29536	5.35977
76.31236	9.36332
76.32936	24.18095
76.34636	37.97237
76.36336	38.57542
76.38036	68.11763
76.39736	55.90244
76.41436	47.7757
76.43136	71.51259
76.44836	68.32019
76.46536	85.55977
76.48236	134.69405
76.49936	109.3142
76.51636	100.6667
76.53336	127.43238
76.55036	98.80604
76.56736	57.81115
76.58436	64.25136
76.60136	51.02943
76.61836	45.63813
76.63536	23.66061
76.65236	39.54524
76.66936	66.94522
76.68636	53.90697
76.70336	84.92179
76.72036	73.8023
76.73736	68.71624
76.75436	62.86317
76.77136	42.76021
76.78836	29.84602
76.80536	34.91348
76.82236	89.98482
76.83936	32.12027
76.85636	19.55803
76.87336	-13.32143
76.89036	32.22029
76.90736	50.0973
76.92436	47.13179
76.94136	52.51584
76.95836	35.47212
76.97536	45.27193
76.99236	63.37223
77.00936	51.37784
77.02636	110.31324
77.04336	102.48089
77.06036	112.8747
77.07736	144.08791
77.09436	103.39947
77.11136	96.03503
77.12836	66.80368
77.14536	47.19722
77.16236	32.31075
77.17936	75.23256
77.19636	67.65244
77.21336	37.69323
77.23036	37.54395
77.24736	63.55767
77.26436	73.86436
77.28136	76.48198
77.29836	72681
77.31536	71.96782
77.33236	67.66436
77.34936	67.97
77.36636	79.10188
77.38336	68.60275
77.40036	46.78991
77.41736	48.47394
77.43436	64.84178
77.45136	39.05261
77.46836	32.76363
77.48536	39.1641
77.50236	52.00029
77.51936	62.79031
77.53636	37.19989
77.55336	25.83871
77.57036	73.34767
77.58736	100.63598
77.60436	92.48108
77.62136	110.60807
77.63836	66.88509
77.65536	66.14183
77.67236	62.56654
77.68936	64.15542
77.70636	113.01291
77.72336	82.10397
77.74036	95.20392
77.75736	119.27836
77.77436	95.42465
77.79136	69.01506
77.80836	43.64002
77.82536	98.29718
77.84236	37.63525
77.85936	51.06844
77.87636	42.42959
77.89336	89.61694
77.91036	24.43807
77.92736	56.16881
77.94436	79.49554
77.96136	40.86197
77.97836	45.50141
77.99536	39.62245
78.01236	27.68669
78.02936	29.39785
78.04636	27.24252
78.06336	17.16114
78.08036	2.15443
78.09736	-4.02874
78.11436	32.62322
78.13136	20.28032
78.14836	12.00767
78.16536	14.40095
78.18236	13.39779
78.19936	9.7084
78.21636	18.46803
78.23336	32.24665
78.25036	3994
78.26736	1.1267
78.28436	1.30226
78.30136	-5.42967
78.31836	7.49509
78.33536	36.89247
78.35236	43.99173
78.36936	16.79021
78.38636	7.72171
78.40336	18.75861
78.42036	32.59561
78.43736	27.52817
78.45436	2.42073
78.47136	26.9181
78.48836	17.90995
78.50536	4.26582
78.52236	10.4244
78.53936	20.39702
78.55636	10.60016
78.57336	6.32258
78.59036	26.63046
78.60736	3.0965
78.62436	-19.02124
78.64136	-17.33549
78.65836	26.11294
78.67536	-0.68683
78.69236	4.53704
78.70936	24.02377
78.72636	16.0716
78.74336	17.10267
78.76036	4.02329
78.77736	-1.4187
78.79436	13.28408
78.81136	-6.34803
78.82836	16.73244
78.84536	19.96003
78.86236	48.3384
78.87936	6.5337
78.89636	35.27722
78.91336	-12.89698
78.93036	2.50539
78.94736	52.36792
78.96436	34.11815
78.98136	13.11197
78.99836	64.34207
79.01536	38.70732
79.03236	78.4597
79.04936	93.00067
79.06636	80.06376
79.08336	86.06452
79.10036	85.26826
79.11736	69.46813
79.13436	50.90414
79.15136	66.43258
79.16836	41.66661
79.18536	28.05337
79.20236	44.49219
79.21936	57.46107
79.23636	45.50728
79.25336	40.49234
79.27036	53.09982
79.28736	45.12529
79.30436	56.43284
79.32136	66.12677
79.33836	56.42652
79.35536	44.76528
79.37236	23.17802
79.38936	16.53047
79.40636	27.93873
79.42336	17.79182
79.44036	12.75681
79.45736	16.73398
79.47436	37.44647
79.49136	38.93881
79.50836	19.71739
79.52536	25.08608
79.54236	22.82632
79.55936	25.19794
79.57636	13.46085
79.59336	41.68392
79.61036	35.24199
79.62736	9.53896
79.64436	26.29988
79.66136	68.27812
79.67836	62.78022
79.69536	55.95122
79.71236	53.61048
79.72936	85333
79.74636	80.96199
79.76336	102.05411
79.78036	86.03299
79.79736	78.00139
79.81436	100.67144
79.83136	86.43543
79.84836	97.08486
79.86536	128.46165
79.88236	119.90137
79.89936	135.01988
79.91636	130.16568
79.93336	122.0593
79.95036	128.3293
79.96736	109.97474
79.98436	85.62911
80.00136	98.6014
